SpectraSuite Data File			
++++++++++++++++++++++++++++++++++++			
Date: Wed Mar 11 14:48:38 CET 2026			
User: User			
Dark Spectrum Present: No			
Reference Spectrum Present: No			
Number of Sampled Component Spectra: 1			
Spectrometers: USB2G10323			
Integration Time (usec): 20000 (USB2G10323)			
Spectra Averaged: 1 (USB2G10323)			
Boxcar Smoothing: 0 (USB2G10323)			
Correct for Electrical Dark: No (USB2G10323)			
Strobe/Lamp Enabled: No (USB2G10323)			
Correct for Detector Non-linearity: No (USB2G10323)			
Correct for Stray Light: No (USB2G10323)			
Number of Pixels in Processed Spectrum: 2048			
>>>>>Begin Processed Spectral Data<<<<<			
339,75	0	0	0
340,13	201	199	99,5
340,51	205	203	101,5
340,89	204	204	102
341,27	205	203	101,5
341,65	209	208	104
342,03	206	203	101,5
342,4	208	205	102,5
342,78	209	206	103
343,16	205	208	104
343,54	207	207	103,5
343,92	209	207	103,5
344,3	210	201	100,5
344,67	207	209	104,5
345,05	207	214	107
345,43	208	206	103
345,81	214	206	103
346,19	208	209	104,5
346,56	206	209	104,5
346,94	205	205	102,5
347,32	203	211	105,5
347,7	208	208	104
348,08	206	208	104
348,45	210	209	104,5
348,83	211	205	102,5
349,21	213	205	102,5
349,59	215	208	104
349,96	206	208	104
350,34	210	207	103,5
350,72	212	208	104
351,1	214	210	105
351,48	210	213	106,5
351,85	210	209	104,5
352,23	212	206	103
352,61	212	207	103,5
352,98	210	209	104,5
353,36	208	210	105
353,74	212	213	106,5
354,12	212	213	106,5
354,49	217	210	105
354,87	212	213	106,5
355,25	210	209	104,5
355,63	210	206	103
356	215	215	107,5
356,38	213	208	104
356,76	219	215	107,5
357,13	216	213	106,5
357,51	208	212	106
357,89	211	209	104,5
358,26	210	208	104
358,64	208	209	104,5
359,02	215	206	103
359,4	216	210	105
359,77	214	212	106
360,15	213	207	103,5
360,53	212	211	105,5
360,9	214	205	102,5
361,28	214	212	106
361,65	217	209	104,5
362,03	216	212	106
362,41	216	210	105
362,78	215	209	104,5
363,16	213	207	103,5
363,54	215	210	105
363,91	216	210	105
364,29	215	211	105,5
364,67	218	209	104,5
365,04	216	213	106,5
365,42	214	215	107,5
365,79	218	209	104,5
366,17	217	211	105,5
366,55	214	211	105,5
366,92	218	210	105
367,3	217	211	105,5
367,67	213	212	106
368,05	215	207	103,5
368,43	211	211	105,5
368,8	208	209	104,5
369,18	214	215	107,5
369,55	214	213	106,5
369,93	217	210	105
370,31	218	210	105
370,68	211	213	106,5
371,06	212	214	107
371,43	218	210	105
371,81	213	213	106,5
372,18	209	209	104,5
372,56	217	210	105
372,93	215	210	105
373,31	212	206	103
373,68	212	208	104
374,06	212	210	105
374,44	208	211	105,5
374,81	213	212	106
375,19	217	212	106
375,56	215	213	106,5
375,94	222	210	105
376,31	216	216	108
376,69	213	213	106,5
377,06	215	212	106
377,44	214	210	105
377,81	212	210	105
378,19	213	209	104,5
378,56	215	210	105
378,94	216	211	105,5
379,31	215	211	105,5
379,68	212	212	106
380,06	216	216	108
380,43	217	212	106
380,81	214	210	105
381,18	211	211	105,5
381,56	212	210	105
381,93	215	206	103
382,31	214	209	104,5
382,68	214	214	107
383,06	213	212	106
383,43	218	209	104,5
383,8	213	216	108
384,18	212	210	105
384,55	215	209	104,5
384,93	214	211	105,5
385,3	214	211	105,5
385,68	215	212	106
386,05	217	211	105,5
386,42	220	205	102,5
386,8	214	213	106,5
387,17	216	209	104,5
387,55	219	215	107,5
387,92	217	209	104,5
388,29	214	217	108,5
388,67	211	206	103
389,04	217	213	106,5
389,42	217	212	106
389,79	208	212	106
390,16	217	211	105,5
390,54	215	211	105,5
390,91	213	208	104
391,28	212	213	106,5
391,66	212	211	105,5
392,03	221	212	106
392,4	216	209	104,5
392,78	212	214	107
393,15	210	212	106
393,52	216	209	104,5
393,9	215	218	109
394,27	218	211	105,5
394,64	218	213	106,5
395,02	212	216	108
395,39	215	211	105,5
395,76	212	211	105,5
396,14	216	211	105,5
396,51	214	216	108
396,88	219	211	105,5
397,26	216	214	107
397,63	215	213	106,5
398	216	206	103
398,37	214	213	106,5
398,75	216	212	106
399,12	216	215	107,5
399,49	215	211	105,5
399,86	212	210	105
400,24	217	210	105
400,61	217	212	106
400,98	215	217	108,5
401,36	218	215	107,5
401,73	220	210	105
402,1	215	209	104,5
402,47	217	214	107
402,85	215	213	106,5
403,22	215	210	105
403,59	218	214	107
403,96	213	211	105,5
404,33	216	210	105
404,71	221	206	103
405,08	217	212	106
405,45	221	213	106,5
405,82	219	211	105,5
406,19	225	212	106
406,57	219	210	105
406,94	220	212	106
407,31	223	214	107
407,68	221	213	106,5
408,05	221	208	104
408,43	220	212	106
408,8	221	212	106
409,17	225	210	105
409,54	220	212	106
409,91	216	212	106
410,28	218	212	106
410,66	219	211	105,5
411,03	221	208	104
411,4	221	213	106,5
411,77	222	208	104
412,14	225	212	106
412,51	224	213	106,5
412,88	229	213	106,5
413,26	232	211	105,5
413,63	227	214	107
414	232	210	105
414,37	235	214	107
414,74	230	208	104
415,11	230	214	107
415,48	236	210	105
415,85	240	216	108
416,23	242	212	106
416,6	245	213	106,5
416,97	250	213	106,5
417,34	247	209	104,5
417,71	255	211	105,5
418,08	260	213	106,5
418,45	264	212	106
418,82	259	213	106,5
419,19	267	211	105,5
419,56	269	210	105
419,93	274	212	106
420,3	280	214	107
420,67	285	212	106
421,04	289	208	104
421,42	302	213	106,5
421,79	300	208	104
422,16	309	211	105,5
422,53	313	211	105,5
422,9	328	211	105,5
423,27	338	213	106,5
423,64	341	211	105,5
424,01	351	215	107,5
424,38	361	213	106,5
424,75	377	212	106
425,12	386	215	107,5
425,49	386	210	105
425,86	404	213	106,5
426,23	416	218	109
426,6	434	212	106
426,97	445	219	109,5
427,34	455	215	107,5
427,71	467	212	106
428,08	479	213	106,5
428,45	508	211	105,5
428,82	524	211	105,5
429,19	534	212	106
429,56	558	211	105,5
429,92	578	218	109
430,29	614	210	105
430,66	634	210	105
431,03	654	216	108
431,4	674	215	107,5
431,77	700	211	105,5
432,14	737	213	106,5
432,51	770	213	106,5
432,88	814	212	106
433,25	839	214	107
433,62	877	211	105,5
433,99	934	210	105
434,36	974	210	105
434,73	1029	214	107
435,09	1060	216	108
435,46	1136	210	105
435,83	1170	213	106,5
436,2	1249	212	106
436,57	1287	213	106,5
436,94	1402	212	106
437,31	1419	205	102,5
437,68	1552	212	106
438,05	1578	212	106
438,41	1676	214	107
438,78	1772	214	107
439,15	1832	214	107
439,52	1917	212	106
439,89	1996	215	107,5
440,26	2090	215	107,5
440,62	2171	208	104
440,99	2312	214	107
441,36	2340	215	107,5
441,73	2424	213	106,5
442,1	2501	210	105
442,47	2655	209	104,5
442,83	2729	217	108,5
443,2	2790	211	105,5
443,57	2829	210	105
443,94	2930	215	107,5
444,31	3024	208	104
444,67	3105	212	106
445,04	3099	213	106,5
445,41	3099	210	105
445,78	3188	210	105
446,15	3301	214	107
446,51	3252	211	105,5
446,88	3268	211	105,5
447,25	3301	213	106,5
447,62	3287	212	106
447,98	3254	208	104
448,35	3180	208	104
448,72	3160	210	105
449,09	3150	208	104
449,46	3032	213	106,5
449,82	2987	214	107
450,19	2915	212	106
450,56	2857	218	109
450,92	2819	212	106
451,29	2685	211	105,5
451,66	2701	212	106
452,03	2618	212	106
452,39	2519	213	106,5
452,76	2431	219	109,5
453,13	2382	212	106
453,49	2363	215	107,5
453,86	2267	211	105,5
454,23	2191	212	106
454,6	2164	206	103
454,96	2122	215	107,5
455,33	2068	212	106
455,7	1983	214	107
456,06	2016	217	108,5
456,43	1934	215	107,5
456,8	1939	214	107
457,16	1907	213	106,5
457,53	1907	211	105,5
457,9	1837	214	107
458,26	1840	210	105
458,63	1826	210	105
459	1773	214	107
459,36	1772	219	109,5
459,73	1812	217	108,5
460,09	1784	213	106,5
460,46	1744	212	106
460,83	1752	207	103,5
461,19	1740	214	107
461,56	1678	213	106,5
461,93	1681	212	106
462,29	1705	215	107,5
462,66	1649	216	108
463,02	1612	212	106
463,39	1592	218	109
463,76	1569	212	106
464,12	1538	208	104
464,49	1500	210	105
464,85	1513	214	107
465,22	1493	212	106
465,58	1469	211	105,5
465,95	1423	211	105,5
466,32	1422	207	103,5
466,68	1386	212	106
467,05	1365	212	106
467,41	1362	214	107
467,78	1330	210	105
468,14	1305	207	103,5
468,51	1294	210	105
468,87	1273	216	108
469,24	1276	210	105
469,6	1230	215	107,5
469,97	1226	210	105
470,33	1212	215	107,5
470,7	1207	211	105,5
471,06	1218	213	106,5
471,43	1210	212	106
471,79	1207	215	107,5
472,16	1237	211	105,5
472,52	1194	211	105,5
472,89	1215	211	105,5
473,25	1207	215	107,5
473,62	1208	208	104
473,98	1207	215	107,5
474,35	1217	217	108,5
474,71	1242	214	107
475,08	1225	215	107,5
475,44	1238	210	105
475,81	1239	212	106
476,17	1245	212	106
476,54	1263	214	107
476,9	1258	212	106
477,27	1251	214	107
477,63	1277	210	105
477,99	1272	209	104,5
478,36	1291	213	106,5
478,72	1297	213	106,5
479,09	1306	214	107
479,45	1299	210	105
479,82	1293	217	108,5
480,18	1330	212	106
480,54	1315	211	105,5
480,91	1328	215	107,5
481,27	1304	215	107,5
481,64	1329	218	109
482	1349	209	104,5
482,36	1355	213	106,5
482,73	1354	214	107
483,09	1364	210	105
483,45	1372	212	106
483,82	1382	213	106,5
484,18	1409	213	106,5
484,55	1401	214	107
484,91	1395	209	104,5
485,27	1402	220	110
485,64	1415	209	104,5
486	1429	215	107,5
486,36	1450	211	105,5
486,73	1437	212	106
487,09	1448	216	108
487,45	1470	215	107,5
487,82	1469	208	104
488,18	1474	214	107
488,54	1485	213	106,5
488,91	1501	213	106,5
489,27	1511	216	108
489,63	1524	214	107
489,99	1529	212	106
490,36	1554	217	108,5
490,72	1561	212	106
491,08	1565	216	108
491,45	1579	214	107
491,81	1586	215	107,5
492,17	1586	215	107,5
492,53	1600	214	107
492,9	1615	215	107,5
493,26	1611	217	108,5
493,62	1649	215	107,5
493,98	1646	217	108,5
494,35	1663	214	107
494,71	1651	213	106,5
495,07	1678	215	107,5
495,43	1683	215	107,5
495,8	1696	211	105,5
496,16	1687	221	110,5
496,52	1705	218	109
496,88	1706	222	111
497,25	1707	213	106,5
497,61	1722	216	108
497,97	1739	215	107,5
498,33	1746	213	106,5
498,69	1741	212	106
499,06	1728	214	107
499,42	1750	214	107
499,78	1757	216	108
500,14	1792	216	108
500,5	1796	213	106,5
500,86	1810	218	109
501,23	1828	225	112,5
501,59	1829	218	109
501,95	1836	216	108
502,31	1821	217	108,5
502,67	1840	216	108
503,03	1864	222	111
503,4	1869	213	106,5
503,76	1873	225	112,5
504,12	1824	226	113
504,48	1872	225	112,5
504,84	1865	219	109,5
505,2	1860	221	110,5
505,56	1914	228	114
505,93	1904	222	111
506,29	1885	225	112,5
506,65	1895	231	115,5
507,01	1920	231	115,5
507,37	1919	234	117
507,73	1925	241	120,5
508,09	1938	238	119
508,45	1954	240	120
508,81	1968	247	123,5
509,17	1970	254	127
509,53	1983	250	125
509,9	1994	253	126,5
510,26	1970	263	131,5
510,62	1960	272	136
510,98	1981	278	139
511,34	1970	280	140
511,7	2010	292	146
512,06	2032	298	149
512,42	2039	307	153,5
512,78	2015	322	161
513,14	2044	333	166,5
513,5	2035	350	175
513,86	2048	360	180
514,22	2048	373	186,5
514,58	2026	394	197
514,94	2053	406	203
515,3	2039	432	216
515,66	2049	452	226
516,02	2056	465	232,5
516,38	2066	495	247,5
516,74	2075	517	258,5
517,1	2074	535	267,5
517,46	2080	563	281,5
517,82	2129	606	303
518,18	2098	629	314,5
518,54	2107	661	330,5
518,9	2126	698	349
519,26	2112	718	359
519,62	2092	736	368
519,98	2090	767	383,5
520,34	2091	792	396
520,7	2117	831	415,5
521,06	2112	870	435
521,42	2129	902	451
521,78	2136	921	460,5
522,14	2154	955	477,5
522,49	2139	975	487,5
522,85	2161	1021	510,5
523,21	2155	1038	519
523,57	2139	1055	527,5
523,93	2143	1089	544,5
524,29	2136	1115	557,5
524,65	2158	1131	565,5
525,01	2136	1168	584
525,37	2169	1173	586,5
525,73	2163	1203	601,5
526,08	2204	1221	610,5
526,44	2175	1232	616
526,8	2156	1242	621
527,16	2194	1262	631
527,52	2185	1268	634
527,88	2161	1272	636
528,24	2168	1272	636
528,6	2199	1258	629
528,95	2186	1267	633,5
529,31	2190	1262	631
529,67	2212	1283	641,5
530,03	2213	1280	640
530,39	2220	1277	638,5
530,75	2215	1271	635,5
531,1	2224	1247	623,5
531,46	2215	1241	620,5
531,82	2232	1214	607
532,18	2237	1216	608
532,54	2226	1188	594
532,89	2246	1181	590,5
533,25	2231	1161	580,5
533,61	2257	1163	581,5
533,97	2264	1151	575,5
534,33	2309	1151	575,5
534,68	2291	1159	579,5
535,04	2315	1134	567
535,4	2286	1116	558
535,76	2300	1123	561,5
536,12	2279	1120	560
536,47	2290	1126	563
536,83	2271	1118	559
537,19	2279	1146	573
537,55	2301	1144	572
537,9	2315	1137	568,5
538,26	2348	1177	588,5
538,62	2324	1198	599
538,98	2320	1207	603,5
539,33	2337	1275	637,5
539,69	2403	1304	652
540,05	2381	1344	672
540,4	2382	1376	688
540,76	2357	1413	706,5
541,12	2369	1483	741,5
541,48	2378	1482	741
541,83	2361	1539	769,5
542,19	2360	1609	804,5
542,55	2392	1640	820
542,9	2380	1689	844,5
543,26	2387	1750	875
543,62	2401	1815	907,5
543,97	2437	1852	926
544,33	2383	1909	954,5
544,69	2425	1975	987,5
545,04	2432	2022	1011
545,4	2419	2065	1032,5
545,76	2420	2093	1046,5
546,11	2372	2137	1068,5
546,47	2360	2149	1074,5
546,83	2395	2176	1088
547,18	2364	2247	1123,5
547,54	2398	2265	1132,5
547,89	2398	2338	1169
548,25	2414	2353	1176,5
548,61	2455	2423	1211,5
548,96	2434	2469	1234,5
549,32	2454	2458	1229
549,68	2445	2487	1243,5
550,03	2431	2508	1254
550,39	2436	2531	1265,5
550,74	2430	2558	1279
551,1	2411	2572	1286
551,45	2406	2565	1282,5
551,81	2436	2561	1280,5
552,17	2440	2633	1316,5
552,52	2471	2619	1309,5
552,88	2478	2647	1323,5
553,23	2497	2699	1349,5
553,59	2486	2655	1327,5
553,94	2507	2686	1343
554,3	2461	2646	1323
554,66	2448	2642	1321
555,01	2431	2665	1332,5
555,37	2400	2611	1305,5
555,72	2406	2616	1308
556,08	2395	2641	1320,5
556,43	2370	2622	1311
556,79	2381	2665	1332,5
557,14	2405	2631	1315,5
557,5	2423	2658	1329
557,85	2437	2644	1322
558,21	2426	2669	1334,5
558,56	2468	2685	1342,5
558,92	2519	2685	1342,5
559,27	2540	2690	1345
559,63	2548	2689	1344,5
559,98	2480	2653	1326,5
560,34	2496	2656	1328
560,69	2460	2682	1341
561,05	2451	2664	1332
561,4	2432	2665	1332,5
561,76	2441	2678	1339
562,11	2389	2638	1319
562,46	2396	2641	1320,5
562,82	2384	2670	1335
563,17	2402	2654	1327
563,53	2392	2684	1342
563,88	2444	2674	1337
564,24	2419	2697	1348,5
564,59	2440	2687	1343,5
564,95	2434	2729	1364,5
565,3	2480	2731	1365,5
565,65	2509	2747	1373,5
566,01	2478	2746	1373
566,36	2490	2753	1376,5
566,72	2544	2779	1389,5
567,07	2545	2797	1398,5
567,42	2510	2803	1401,5
567,78	2490	2801	1400,5
568,13	2450	2844	1422
568,48	2472	2824	1412
568,84	2478	2831	1415,5
569,19	2446	2849	1424,5
569,55	2433	2838	1419
569,9	2415	2856	1428
570,25	2420	2866	1433
570,61	2383	2871	1435,5
570,96	2405	2862	1431
571,31	2399	2870	1435
571,67	2357	2881	1440,5
572,02	2368	2903	1451,5
572,37	2393	2916	1458
572,73	2410	2936	1468
573,08	2413	2921	1460,5
573,43	2433	2970	1485
573,79	2433	2997	1498,5
574,14	2477	3047	1523,5
574,49	2499	3086	1543
574,85	2509	3107	1553,5
575,2	2534	3082	1541
575,55	2525	3080	1540
575,9	2508	3100	1550
576,26	2500	3133	1566,5
576,61	2521	3175	1587,5
576,96	2533	3175	1587,5
577,31	2490	3156	1578
577,67	2480	3174	1587
578,02	2469	3144	1572
578,37	2441	3172	1586
578,73	2458	3186	1593
579,08	2401	3152	1576
579,43	2393	3111	1555,5
579,78	2383	3103	1551,5
580,13	2369	3093	1546,5
580,49	2356	3102	1551
580,84	2362	3125	1562,5
581,19	2387	3118	1559
581,54	2408	3148	1574
581,9	2420	3172	1586
582,25	2415	3150	1575
582,6	2439	3213	1606,5
582,95	2465	3205	1602,5
583,3	2494	3231	1615,5
583,66	2494	3283	1641,5
584,01	2515	3255	1627,5
584,36	2502	3277	1638,5
584,71	2519	3270	1635
585,06	2539	3286	1643
585,41	2520	3256	1628
585,77	2526	3267	1633,5
586,12	2538	3254	1627
586,47	2468	3229	1614,5
586,82	2468	3214	1607
587,17	2475	3246	1623
587,52	2449	3215	1607,5
587,88	2446	3173	1586,5
588,23	2433	3210	1605
588,58	2413	3173	1586,5
588,93	2409	3160	1580
589,28	2404	3118	1559
589,63	2387	3134	1567
589,98	2439	3130	1565
590,33	2422	3138	1569
590,68	2458	3145	1572,5
591,04	2437	3117	1558,5
591,39	2475	3146	1573
591,74	2439	3111	1555,5
592,09	2443	3084	1542
592,44	2446	3102	1551
592,79	2438	3070	1535
593,14	2459	3054	1527
593,49	2473	3046	1523
593,84	2477	3050	1525
594,19	2470	3037	1518,5
594,54	2465	3008	1504
594,89	2496	2999	1499,5
595,24	2434	3000	1500
595,59	2490	3010	1505
595,94	2481	2996	1498
596,3	2535	3006	1503
596,65	2496	2957	1478,5
597	2480	2938	1469
597,35	2509	2890	1445
597,7	2520	2889	1444,5
598,05	2543	2878	1439
598,4	2569	2869	1434,5
598,75	2538	2818	1409
599,1	2539	2806	1403
599,45	2511	2764	1382
599,8	2514	2744	1372
600,15	2522	2697	1348,5
600,5	2454	2652	1326
600,85	2475	2631	1315,5
601,2	2489	2593	1296,5
601,54	2508	2573	1286,5
601,89	2509	2517	1258,5
602,24	2502	2496	1248
602,59	2466	2433	1216,5
602,94	2504	2401	1200,5
603,29	2521	2371	1185,5
603,64	2523	2345	1172,5
603,99	2531	2322	1161
604,34	2504	2273	1136,5
604,69	2524	2230	1115
605,04	2523	2218	1109
605,39	2510	2187	1093,5
605,74	2546	2161	1080,5
606,09	2515	2108	1054
606,44	2518	2120	1060
606,78	2494	2046	1023
607,13	2478	2016	1008
607,48	2494	2014	1007
607,83	2510	1980	990
608,18	2480	1962	981
608,53	2502	1936	968
608,88	2527	1942	971
609,23	2502	1904	952
609,57	2478	1865	932,5
609,92	2462	1876	938
610,27	2495	1861	930,5
610,62	2492	1860	930
610,97	2505	1839	919,5
611,32	2467	1797	898,5
611,67	2478	1847	923,5
612,01	2523	1823	911,5
612,36	2478	1825	912,5
612,71	2461	1794	897
613,06	2427	1811	905,5
613,41	2431	1763	881,5
613,75	2426	1805	902,5
614,1	2381	1763	881,5
614,45	2418	1794	897
614,8	2420	1797	898,5
615,15	2427	1774	887
615,49	2382	1803	901,5
615,84	2341	1773	886,5
616,19	2387	1792	896
616,54	2361	1804	902
616,89	2351	1796	898
617,23	2319	1800	900
617,58	2323	1829	914,5
617,93	2293	1807	903,5
618,28	2294	1814	907
618,62	2285	1807	903,5
618,97	2242	1819	909,5
619,32	2239	1847	923,5
619,67	2289	1864	932
620,01	2226	1850	925
620,36	2224	1880	940
620,71	2215	1865	932,5
621,05	2189	1879	939,5
621,4	2205	1905	952,5
621,75	2195	1897	948,5
622,1	2187	1898	949
622,44	2208	1937	968,5
622,79	2163	1954	977
623,14	2164	1940	970
623,48	2151	1959	979,5
623,83	2150	1971	985,5
624,18	2147	1982	991
624,52	2155	1983	991,5
624,87	2126	1972	986
625,22	2124	1969	984,5
625,56	2105	1985	992,5
625,91	2103	2023	1011,5
626,26	2065	2010	1005
626,6	2065	2011	1005,5
626,95	2013	1984	992
627,3	2024	2035	1017,5
627,64	2033	2025	1012,5
627,99	2040	2045	1022,5
628,33	2003	2000	1000
628,68	2013	2009	1004,5
629,03	1975	1996	998
629,37	1998	1996	998
629,72	1939	1964	982
630,07	1935	1980	990
630,41	1964	1982	991
630,76	1952	1985	992,5
631,1	1919	1961	980,5
631,45	1921	1952	976
631,79	1899	1940	970
632,14	1890	1937	968,5
632,49	1881	1915	957,5
632,83	1862	1885	942,5
633,18	1822	1891	945,5
633,52	1836	1878	939
633,87	1834	1887	943,5
634,21	1824	1845	922,5
634,56	1785	1835	917,5
634,9	1764	1826	913
635,25	1757	1809	904,5
635,6	1735	1775	887,5
635,94	1713	1771	885,5
636,29	1731	1753	876,5
636,63	1710	1735	867,5
636,98	1710	1720	860
637,32	1733	1709	854,5
637,67	1707	1694	847
638,01	1656	1662	831
638,36	1665	1627	813,5
638,7	1644	1609	804,5
639,05	1625	1600	800
639,39	1643	1591	795,5
639,73	1626	1585	792,5
640,08	1627	1549	774,5
640,42	1604	1564	782
640,77	1580	1541	770,5
641,11	1591	1519	759,5
641,46	1584	1469	734,5
641,8	1549	1461	730,5
642,15	1518	1449	724,5
642,49	1525	1446	723
642,84	1518	1405	702,5
643,18	1503	1393	696,5
643,52	1499	1397	698,5
643,87	1506	1374	687
644,21	1503	1358	679
644,56	1486	1347	673,5
644,9	1461	1301	650,5
645,24	1450	1308	654
645,59	1458	1304	652
645,93	1415	1273	636,5
646,28	1421	1246	623
646,62	1416	1237	618,5
646,96	1415	1209	604,5
647,31	1402	1190	595
647,65	1375	1142	571
647,99	1360	1143	571,5
648,34	1374	1094	547
648,68	1374	1085	542,5
649,03	1353	1046	523
649,37	1347	1024	512
649,71	1337	1004	502
650,06	1299	966	483
650,4	1299	939	469,5
650,74	1295	916	458
651,09	1287	877	438,5
651,43	1273	860	430
651,77	1269	834	417
652,11	1236	795	397,5
652,46	1232	772	386
652,8	1223	758	379
653,14	1228	723	361,5
653,49	1218	703	351,5
653,83	1208	671	335,5
654,17	1214	653	326,5
654,52	1196	620	310
654,86	1174	593	296,5
655,2	1189	580	290
655,54	1180	554	277
655,89	1172	520	260
656,23	1162	512	256
656,57	1149	487	243,5
656,91	1124	473	236,5
657,26	1118	456	228
657,6	1092	430	215
657,94	1122	414	207
658,28	1115	401	200,5
658,62	1087	387	193,5
658,97	1086	362	181
659,31	1097	346	173
659,65	1072	334	167
659,99	1056	328	164
660,33	1048	314	157
660,68	1052	300	150
661,02	1044	297	148,5
661,36	1050	282	141
661,7	1019	282	141
662,04	1016	279	139,5
662,39	1007	266	133
662,73	1012	258	129
663,07	981	254	127
663,41	981	249	124,5
663,75	985	254	127
664,09	970	246	123
664,44	939	242	121
664,78	934	233	116,5
665,12	943	235	117,5
665,46	931	224	112
665,8	924	224	112
666,14	922	230	115
666,48	918	221	110,5
666,82	899	219	109,5
667,16	920	220	110
667,51	891	219	109,5
667,85	884	220	110
668,19	882	219	109,5
668,53	869	221	110,5
668,87	878	220	110
669,21	856	214	107
669,55	855	216	108
669,89	836	223	111,5
670,23	828	215	107,5
670,57	822	219	109,5
670,91	832	215	107,5
671,25	812	219	109,5
671,59	805	216	108
671,93	809	216	108
672,28	806	216	108
672,62	789	218	109
672,96	779	215	107,5
673,3	794	221	110,5
673,64	768	215	107,5
673,98	771	217	108,5
674,32	759	220	110
674,66	757	217	108,5
675	743	219	109,5
675,34	734	219	109,5
675,68	736	223	111,5
676,02	735	218	109
676,36	734	223	111,5
676,7	720	225	112,5
677,04	718	223	111,5
677,38	716	224	112
677,71	715	228	114
678,05	697	226	113
678,39	693	226	113
678,73	695	239	119,5
679,07	689	239	119,5
679,41	677	240	120
679,75	675	246	123
680,09	671	244	122
680,43	658	256	128
680,77	675	263	131,5
681,11	660	271	135,5
681,45	631	275	137,5
681,79	642	285	142,5
682,13	641	293	146,5
682,46	624	304	152
682,8	625	317	158,5
683,14	634	323	161,5
683,48	613	335	167,5
683,82	613	344	172
684,16	600	364	182
684,5	616	368	184
684,84	598	385	192,5
685,17	596	391	195,5
685,51	581	410	205
685,85	589	421	210,5
686,19	577	427	213,5
686,53	569	439	219,5
686,87	575	456	228
687,21	569	464	232
687,54	562	475	237,5
687,88	557	488	244
688,22	560	493	246,5
688,56	563	501	250,5
688,9	547	505	252,5
689,23	549	511	255,5
689,57	543	520	260
689,91	540	515	257,5
690,25	540	536	268
690,59	524	527	263,5
690,92	533	542	271
691,26	523	524	262
691,6	523	532	266
691,94	519	548	274
692,27	516	546	273
692,61	514	535	267,5
692,95	510	537	268,5
693,29	502	544	272
693,62	496	556	278
693,96	493	540	270
694,3	492	535	267,5
694,64	487	538	269
694,97	480	532	266
695,31	478	527	263,5
695,65	474	534	267
695,98	474	534	267
696,32	471	524	262
696,66	461	522	261
697	467	525	262,5
697,33	468	525	262,5
697,67	461	522	261
698,01	455	510	255
698,34	453	510	255
698,68	451	505	252,5
699,02	446	498	249
699,35	431	499	249,5
699,69	444	495	247,5
700,03	442	505	252,5
700,36	437	488	244
700,7	426	487	243,5
701,04	428	487	243,5
701,37	420	485	242,5
701,71	420	478	239
702,04	415	475	237,5
702,38	421	468	234
702,72	416	476	238
703,05	418	474	237
703,39	415	481	240,5
703,72	414	466	233
704,06	400	461	230,5
704,4	404	472	236
704,73	400	457	228,5
705,07	404	466	233
705,4	393	459	229,5
705,74	386	467	233,5
706,08	392	465	232,5
706,41	386	450	225
706,75	391	448	224
707,08	380	450	225
707,42	380	447	223,5
707,75	368	446	223
708,09	371	448	224
708,42	381	453	226,5
708,76	376	440	220
709,09	375	445	222,5
709,43	364	445	222,5
709,76	364	437	218,5
710,1	367	437	218,5
710,43	358	439	219,5
710,77	365	434	217
711,1	359	427	213,5
711,44	354	427	213,5
711,77	356	430	215
712,11	355	426	213
712,44	353	417	208,5
712,78	360	425	212,5
713,11	347	422	211
713,45	345	418	209
713,78	343	417	208,5
714,12	342	411	205,5
714,45	343	422	211
714,79	343	415	207,5
715,12	337	418	209
715,45	339	402	201
715,79	335	414	207
716,12	340	410	205
716,46	338	398	199
716,79	333	401	200,5
717,13	328	403	201,5
717,46	329	401	200,5
717,79	328	396	198
718,13	326	398	199
718,46	322	391	195,5
718,8	320	384	192
719,13	327	386	193
719,46	323	390	195
719,8	314	384	192
720,13	319	376	188
720,46	314	377	188,5
720,8	310	378	189
721,13	312	381	190,5
721,46	310	372	186
721,8	314	371	185,5
722,13	312	372	186
722,46	312	376	188
722,8	307	365	182,5
723,13	307	361	180,5
723,46	312	370	185
723,8	302	368	184
724,13	302	354	177
724,46	301	347	173,5
724,8	310	353	176,5
725,13	298	359	179,5
725,46	297	351	175,5
725,79	292	353	176,5
726,13	294	352	176
726,46	298	352	176
726,79	289	345	172,5
727,13	296	345	172,5
727,46	292	337	168,5
727,79	296	336	168
728,12	285	340	170
728,46	288	332	166
728,79	293	335	167,5
729,12	287	340	170
729,45	289	340	170
729,79	285	327	163,5
730,12	281	322	161
730,45	277	328	164
730,78	286	326	163
731,11	282	325	162,5
731,45	279	332	166
731,78	283	324	162
732,11	281	318	159
732,44	279	321	160,5
732,77	279	322	161
733,11	275	325	162,5
733,44	277	315	157,5
733,77	279	317	158,5
734,1	277	314	157
734,43	272	310	155
734,76	272	314	157
735,09	274	308	154
735,43	270	311	155,5
735,76	274	316	158
736,09	269	315	157,5
736,42	274	304	152
736,75	272	306	153
737,08	271	308	154
737,41	272	301	150,5
737,75	273	306	153
738,08	263	302	151
738,41	268	303	151,5
738,74	271	298	149
739,07	268	301	150,5
739,4	260	296	148
739,73	265	304	152
740,06	258	304	152
740,39	262	296	148
740,72	260	290	145
741,05	261	295	147,5
741,38	261	290	145
741,71	263	285	142,5
742,04	260	295	147,5
742,38	259	293	146,5
742,71	266	294	147
743,04	254	285	142,5
743,37	251	284	142
743,7	253	285	142,5
744,03	257	285	142,5
744,36	253	281	140,5
744,69	258	289	144,5
745,02	256	283	141,5
745,35	257	283	141,5
745,68	254	279	139,5
746,01	254	275	137,5
746,34	259	274	137
746,67	251	278	139
747	248	277	138,5
747,33	254	276	138
747,66	250	276	138
747,99	249	277	138,5
748,31	255	277	138,5
748,64	248	268	134
748,97	251	268	134
749,3	252	271	135,5
749,63	246	268	134
749,96	248	268	134
750,29	248	268	134
750,62	244	269	134,5
750,95	247	261	130,5
751,28	243	266	133
751,61	248	264	132
751,94	243	264	132
752,27	240	268	134
752,59	246	264	132
752,92	241	262	131
753,25	239	264	132
753,58	244	269	134,5
753,91	243	259	129,5
754,24	243	259	129,5
754,57	241	254	127
754,9	242	263	131,5
755,22	243	262	131
755,55	244	260	130
755,88	247	260	130
756,21	240	255	127,5
756,54	238	258	129
756,87	239	256	128
757,19	245	253	126,5
757,52	239	254	127
757,85	240	255	127,5
758,18	240	249	124,5
758,51	240	253	126,5
758,83	239	254	127
759,16	239	249	124,5
759,49	240	252	126
759,82	236	254	127
760,15	236	252	126
760,47	236	248	124
760,8	238	252	126
761,13	235	245	122,5
761,46	232	249	124,5
761,78	237	250	125
762,11	231	249	124,5
762,44	234	245	122,5
762,77	235	249	124,5
763,09	236	247	123,5
763,42	234	246	123
763,75	234	252	126
764,07	235	242	121
764,4	231	245	122,5
764,73	228	247	123,5
765,06	232	246	123
765,38	234	241	120,5
765,71	231	240	120
766,04	236	246	123
766,36	234	244	122
766,69	233	247	123,5
767,02	225	244	122
767,34	225	244	122
767,67	233	241	120,5
768	230	243	121,5
768,32	229	238	119
768,65	229	236	118
768,98	229	238	119
769,3	228	237	118,5
769,63	226	241	120,5
769,96	228	242	121
770,28	233	238	119
770,61	224	237	118,5
770,93	229	242	121
771,26	222	240	120
771,59	225	232	116
771,91	228	240	120
772,24	227	235	117,5
772,56	223	235	117,5
772,89	226	241	120,5
773,22	223	242	121
773,54	227	236	118
773,87	225	236	118
774,19	223	236	118
774,52	222	234	117
774,84	228	231	115,5
775,17	231	232	116
775,5	230	236	118
775,82	226	234	117
776,15	227	229	114,5
776,47	219	234	117
776,8	228	232	116
777,12	228	231	115,5
777,45	224	236	118
777,77	221	232	116
778,1	215	230	115
778,42	222	232	116
778,75	219	233	116,5
779,07	226	237	118,5
779,4	222	227	113,5
779,72	222	230	115
780,05	224	227	113,5
780,37	220	234	117
780,7	225	225	112,5
781,02	224	227	113,5
781,34	224	233	116,5
781,67	221	229	114,5
781,99	225	225	112,5
782,32	221	230	115
782,64	221	224	112
782,97	226	226	113
783,29	226	230	115
783,62	223	232	116
783,94	221	232	116
784,26	221	231	115,5
784,59	218	226	113
784,91	219	225	112,5
785,24	220	224	112
785,56	220	228	114
785,88	222	219	109,5
786,21	217	224	112
786,53	220	225	112,5
786,85	220	228	114
787,18	216	220	110
787,5	216	223	111,5
787,83	221	225	112,5
788,15	220	224	112
788,47	220	225	112,5
788,8	221	230	115
789,12	223	224	112
789,44	219	227	113,5
789,77	216	221	110,5
790,09	220	219	109,5
790,41	220	220	110
790,74	216	228	114
791,06	218	223	111,5
791,38	217	223	111,5
791,7	216	218	109
792,03	217	223	111,5
792,35	215	219	109,5
792,67	222	223	111,5
793	217	226	113
793,32	217	220	110
793,64	219	224	112
793,96	218	226	113
794,29	216	222	111
794,61	223	223	111,5
794,93	214	219	109,5
795,25	217	221	110,5
795,58	219	220	110
795,9	218	225	112,5
796,22	214	217	108,5
796,54	216	218	109
796,86	219	218	109
797,19	218	220	110
797,51	216	219	109,5
797,83	213	218	109
798,15	218	222	111
798,47	214	223	111,5
798,8	218	223	111,5
799,12	215	221	110,5
799,44	216	219	109,5
799,76	216	217	108,5
800,08	210	223	111,5
800,4	214	220	110
800,73	214	220	110
801,05	220	223	111,5
801,37	218	220	110
801,69	218	217	108,5
802,01	217	218	109
802,33	211	218	109
802,65	217	219	109,5
802,98	217	217	108,5
803,3	219	219	109,5
803,62	218	222	111
803,94	216	220	110
804,26	214	219	109,5
804,58	218	217	108,5
804,9	212	220	110
805,22	215	219	109,5
805,54	213	214	107
805,86	213	217	108,5
806,18	216	217	108,5
806,51	216	223	111,5
806,83	218	218	109
807,15	220	217	108,5
807,47	215	214	107
807,79	214	217	108,5
808,11	215	218	109
808,43	218	219	109,5
808,75	216	225	112,5
809,07	216	218	109
809,39	215	216	108
809,71	215	217	108,5
810,03	215	218	109
810,35	217	218	109
810,67	216	215	107,5
810,99	213	219	109,5
811,31	213	219	109,5
811,63	213	219	109,5
811,95	217	214	107
812,27	213	219	109,5
812,59	217	219	109,5
812,91	215	216	108
813,23	213	214	107
813,55	217	216	108
813,87	215	215	107,5
814,18	214	215	107,5
814,5	210	217	108,5
814,82	209	214	107
815,14	212	216	108
815,46	214	214	107
815,78	214	217	108,5
816,1	215	218	109
816,42	219	216	108
816,74	214	212	106
817,06	214	212	106
817,38	210	211	105,5
817,69	216	213	106,5
818,01	212	220	110
818,33	211	212	106
818,65	216	215	107,5
818,97	212	217	108,5
819,29	212	214	107
819,61	214	212	106
819,93	211	217	108,5
820,24	214	218	109
820,56	213	214	107
820,88	212	218	109
821,2	211	217	108,5
821,52	211	218	109
821,83	210	220	110
822,15	214	210	105
822,47	209	212	106
822,79	213	214	107
823,11	211	218	109
823,43	206	213	106,5
823,74	211	214	107
824,06	213	212	106
824,38	207	213	106,5
824,7	212	210	105
825,01	211	213	106,5
825,33	209	211	105,5
825,65	212	213	106,5
825,97	210	213	106,5
826,28	213	213	106,5
826,6	211	215	107,5
826,92	215	209	104,5
827,24	210	216	108
827,55	210	212	106
827,87	210	215	107,5
828,19	212	215	107,5
828,5	216	213	106,5
828,82	209	207	103,5
829,14	213	213	106,5
829,46	216	211	105,5
829,77	219	211	105,5
830,09	210	214	107
830,41	213	209	104,5
830,72	211	214	107
831,04	212	214	107
831,36	213	214	107
831,67	215	213	106,5
831,99	210	214	107
832,31	210	212	106
832,62	216	211	105,5
832,94	216	215	107,5
833,25	212	216	108
833,57	217	217	108,5
833,89	213	212	106
834,2	210	218	109
834,52	210	212	106
834,84	217	210	105
835,15	211	212	106
835,47	214	212	106
835,78	218	213	106,5
836,1	212	209	104,5
836,42	212	206	103
836,73	212	211	105,5
837,05	207	214	107
837,36	215	214	107
837,68	216	211	105,5
837,99	209	213	106,5
838,31	208	212	106
838,62	216	214	107
838,94	213	215	107,5
839,26	209	207	103,5
839,57	212	212	106
839,89	215	217	108,5
840,2	214	214	107
840,52	214	211	105,5
840,83	211	213	106,5
841,15	211	211	105,5
841,46	214	210	105
841,78	211	210	105
842,09	216	211	105,5
842,41	216	212	106
842,72	210	210	105
843,04	212	210	105
843,35	211	216	108
843,66	210	213	106,5
843,98	210	209	104,5
844,29	208	212	106
844,61	211	215	107,5
844,92	212	212	106
845,24	214	212	106
845,55	210	216	108
845,87	214	209	104,5
846,18	212	215	107,5
846,49	209	212	106
846,81	211	209	104,5
847,12	211	211	105,5
847,44	211	206	103
847,75	212	210	105
848,06	208	212	106
848,38	216	210	105
848,69	215	209	104,5
849	209	206	103
849,32	209	208	104
849,63	210	212	106
849,95	210	208	104
850,26	213	216	108
850,57	212	215	107,5
850,89	212	215	107,5
851,2	214	209	104,5
851,51	209	206	103
851,83	211	212	106
852,14	210	215	107,5
852,45	215	212	106
852,77	210	212	106
853,08	214	213	106,5
853,39	210	213	106,5
853,7	211	215	107,5
854,02	207	210	105
854,33	210	210	105
854,64	211	212	106
854,96	213	210	105
855,27	209	207	103,5
855,58	209	212	106
855,89	212	208	104
856,21	211	216	108
856,52	211	206	103
856,83	211	209	104,5
857,14	210	211	105,5
857,46	208	212	106
857,77	214	214	107
858,08	213	210	105
858,39	213	214	107
858,7	215	210	105
859,02	208	210	105
859,33	215	211	105,5
859,64	211	212	106
859,95	213	211	105,5
860,26	212	212	106
860,58	213	215	107,5
860,89	208	210	105
861,2	212	212	106
861,51	212	206	103
861,82	209	213	106,5
862,13	214	211	105,5
862,45	212	210	105
862,76	209	208	104
863,07	211	213	106,5
863,38	212	212	106
863,69	207	208	104
864	210	210	105
864,31	211	207	103,5
864,62	212	208	104
864,93	208	215	107,5
865,25	209	211	105,5
865,56	208	210	105
865,87	213	216	108
866,18	210	210	105
866,49	207	209	104,5
866,8	210	209	104,5
867,11	209	210	105
867,42	208	208	104
867,73	210	209	104,5
868,04	205	212	106
868,35	212	211	105,5
868,66	209	209	104,5
868,97	211	211	105,5
869,28	212	208	104
869,59	209	213	106,5
869,9	206	212	106
870,21	212	209	104,5
870,52	208	206	103
870,83	206	214	107
871,14	211	211	105,5
871,45	208	208	104
871,76	211	211	105,5
872,07	214	211	105,5
872,38	207	205	102,5
872,69	212	208	104
873	213	210	105
873,31	210	211	105,5
873,62	213	210	105
873,93	208	214	107
874,24	212	207	103,5
874,55	210	212	106
874,86	206	212	106
875,17	211	204	102
875,48	210	207	103,5
875,79	209	210	105
876,1	216	211	105,5
876,41	215	210	105
876,72	214	206	103
877,02	211	213	106,5
877,33	215	209	104,5
877,64	210	209	104,5
877,95	206	210	105
878,26	208	213	106,5
878,57	209	209	104,5
878,88	209	212	106
879,19	204	207	103,5
879,49	213	212	106
879,8	209	211	105,5
880,11	208	210	105
880,42	209	214	107
880,73	210	211	105,5
881,04	213	206	103
881,34	209	208	104
881,65	209	208	104
881,96	213	208	104
882,27	208	210	105
882,58	209	206	103
882,88	212	204	102
883,19	208	208	104
883,5	205	214	107
883,81	211	208	104
884,12	207	207	103,5
884,42	209	208	104
884,73	212	210	105
885,04	210	207	103,5
885,35	211	210	105
885,65	209	210	105
885,96	208	206	103
886,27	209	213	106,5
886,58	209	206	103
886,88	212	214	107
887,19	215	211	105,5
887,5	208	210	105
887,8	210	208	104
888,11	209	213	106,5
888,42	208	212	106
888,73	212	210	105
889,03	209	207	103,5
889,34	213	207	103,5
889,65	210	211	105,5
889,95	209	212	106
890,26	210	204	102
890,57	211	209	104,5
890,87	215	212	106
891,18	210	209	104,5
891,49	213	207	103,5
891,79	211	213	106,5
892,1	210	208	104
892,41	207	209	104,5
892,71	214	211	105,5
893,02	213	210	105
893,32	203	210	105
893,63	213	211	105,5
893,94	208	212	106
894,24	210	211	105,5
894,55	210	213	106,5
894,85	214	207	103,5
895,16	211	210	105
895,47	211	212	106
895,77	212	211	105,5
896,08	208	210	105
896,38	210	210	105
896,69	206	209	104,5
896,99	210	209	104,5
897,3	208	208	104
897,6	211	205	102,5
897,91	208	208	104
898,21	211	206	103
898,52	206	206	103
898,83	209	210	105
899,13	209	208	104
899,44	208	213	106,5
899,74	212	208	104
900,05	210	207	103,5
900,35	209	207	103,5
900,65	209	214	107
900,96	215	210	105
901,26	210	211	105,5
901,57	209	208	104
901,87	210	207	103,5
902,18	208	212	106
902,48	214	206	103
902,79	213	211	105,5
903,09	212	211	105,5
903,4	204	213	106,5
903,7	211	211	105,5
904	212	212	106
904,31	215	208	104
904,61	207	204	102
904,92	208	213	106,5
905,22	211	208	104
905,53	212	208	104
905,83	210	209	104,5
906,13	213	207	103,5
906,44	210	209	104,5
906,74	208	212	106
907,04	208	213	106,5
907,35	212	212	106
907,65	209	211	105,5
907,96	210	209	104,5
908,26	211	209	104,5
908,56	211	209	104,5
908,87	217	212	106
909,17	209	206	103
909,47	209	209	104,5
909,78	209	204	102
910,08	207	211	105,5
910,38	213	208	104
910,68	208	208	104
910,99	210	210	105
911,29	209	208	104
911,59	209	206	103
911,9	214	205	102,5
912,2	208	208	104
912,5	212	206	103
912,8	209	210	105
913,11	209	209	104,5
913,41	212	212	106
913,71	208	207	103,5
914,01	211	203	101,5
914,32	208	207	103,5
914,62	206	212	106
914,92	208	206	103
915,22	214	211	105,5
915,53	213	210	105
915,83	211	210	105
916,13	208	210	105
916,43	210	212	106
916,73	207	209	104,5
917,04	209	211	105,5
917,34	212	206	103
917,64	208	211	105,5
917,94	210	209	104,5
918,24	205	212	106
918,55	212	209	104,5
918,85	212	213	106,5
919,15	209	211	105,5
919,45	211	210	105
919,75	208	212	106
920,05	211	213	106,5
920,35	206	210	105
920,66	211	208	104
920,96	208	208	104
921,26	209	211	105,5
921,56	213	204	102
921,86	206	211	105,5
922,16	207	209	104,5
922,46	210	207	103,5
922,76	214	212	106
923,06	208	210	105
923,36	210	210	105
923,66	209	209	104,5
923,97	210	212	106
924,27	213	209	104,5
924,57	207	209	104,5
924,87	210	208	104
925,17	212	214	107
925,47	208	209	104,5
925,77	213	209	104,5
926,07	212	206	103
926,37	209	212	106
926,67	207	211	105,5
926,97	210	207	103,5
927,27	213	211	105,5
927,57	212	212	106
927,87	209	208	104
928,17	210	210	105
928,47	210	212	106
928,77	210	211	105,5
929,07	211	207	103,5
929,37	211	206	103
929,67	207	207	103,5
929,97	207	203	101,5
930,27	215	207	103,5
930,57	210	213	106,5
930,87	209	208	104
931,16	207	206	103
931,46	211	207	103,5
931,76	209	208	104
932,06	211	211	105,5
932,36	208	208	104
932,66	215	208	104
932,96	213	210	105
933,26	210	211	105,5
933,56	208	212	106
933,86	212	206	103
934,16	209	208	104
934,45	211	212	106
934,75	208	210	105
935,05	208	208	104
935,35	212	210	105
935,65	208	208	104
935,95	208	212	106
936,24	207	208	104
936,54	208	206	103
936,84	209	214	107
937,14	206	212	106
937,44	210	208	104
937,74	210	208	104
938,03	211	206	103
938,33	209	208	104
938,63	209	210	105
938,93	207	211	105,5
939,23	210	210	105
939,52	210	208	104
939,82	209	211	105,5
940,12	210	207	103,5
940,42	211	208	104
940,71	210	211	105,5
941,01	215	216	108
941,31	212	211	105,5
941,61	207	208	104
941,9	213	216	108
942,2	206	209	104,5
942,5	213	211	105,5
942,8	215	209	104,5
943,09	207	215	107,5
943,39	209	211	105,5
943,69	212	212	106
943,98	208	210	105
944,28	206	208	104
944,58	205	212	106
944,87	213	216	108
945,17	207	205	102,5
945,47	211	211	105,5
945,76	210	212	106
946,06	212	209	104,5
946,36	211	211	105,5
946,65	211	207	103,5
946,95	216	210	105
947,25	211	208	104
947,54	206	208	104
947,84	207	207	103,5
948,14	211	214	107
948,43	213	212	106
948,73	213	213	106,5
949,02	207	215	107,5
949,32	207	210	105
949,62	211	209	104,5
949,91	210	215	107,5
950,21	212	210	105
950,5	209	211	105,5
950,8	211	210	105
951,09	210	207	103,5
951,39	207	211	105,5
951,69	207	209	104,5
951,98	211	208	104
952,28	205	208	104
952,57	214	210	105
952,87	210	210	105
953,16	207	208	104
953,46	205	210	105
953,75	214	211	105,5
954,05	212	211	105,5
954,34	209	210	105
954,64	208	207	103,5
954,93	210	208	104
955,23	209	208	104
955,52	205	209	104,5
955,82	212	207	103,5
956,11	209	210	105
956,41	210	206	103
956,7	215	206	103
957	210	210	105
957,29	212	211	105,5
957,58	206	214	107
957,88	204	207	103,5
958,17	209	212	106
958,47	206	207	103,5
958,76	209	207	103,5
959,06	211	209	104,5
959,35	209	210	105
959,64	212	206	103
959,94	213	208	104
960,23	213	210	105
960,52	211	210	105
960,82	207	205	102,5
961,11	207	214	107
961,41	212	208	104
961,7	211	206	103
961,99	209	211	105,5
962,29	210	205	102,5
962,58	204	207	103,5
962,87	208	211	105,5
963,17	210	208	104
963,46	212	212	106
963,75	209	208	104
964,05	206	205	102,5
964,34	209	212	106
964,63	207	207	103,5
964,93	213	213	106,5
965,22	208	210	105
965,51	208	209	104,5
965,8	208	207	103,5
966,1	210	208	104
966,39	211	211	105,5
966,68	212	210	105
966,97	207	211	105,5
967,27	213	211	105,5
967,56	205	204	102
967,85	210	211	105,5
968,14	210	206	103
968,44	213	205	102,5
968,73	208	207	103,5
969,02	209	205	102,5
969,31	212	210	105
969,61	211	211	105,5
969,9	211	207	103,5
970,19	211	208	104
970,48	210	210	105
970,77	211	208	104
971,07	206	211	105,5
971,36	206	208	104
971,65	212	211	105,5
971,94	205	205	102,5
972,23	205	211	105,5
972,52	207	208	104
972,81	209	204	102
973,11	206	207	103,5
973,4	211	209	104,5
973,69	210	208	104
973,98	206	209	104,5
974,27	215	210	105
974,56	210	208	104
974,85	212	209	104,5
975,14	207	208	104
975,44	211	211	105,5
975,73	212	208	104
976,02	209	208	104
976,31	208	208	104
976,6	209	208	104
976,89	204	211	105,5
977,18	210	208	104
977,47	209	210	105
977,76	211	206	103
978,05	207	214	107
978,34	211	209	104,5
978,63	207	210	105
978,92	204	207	103,5
979,21	207	214	107
979,5	209	208	104
979,79	209	203	101,5
980,08	209	207	103,5
980,37	208	206	103
980,66	208	206	103
980,95	204	208	104
981,24	210	209	104,5
981,53	212	210	105
981,82	213	209	104,5
982,11	206	207	103,5
982,4	204	203	101,5
982,69	207	208	104
982,98	212	211	105,5
983,27	205	208	104
983,56	209	210	105
983,85	210	210	105
984,14	209	210	105
984,43	206	207	103,5
984,72	209	208	104
985,01	208	206	103
985,29	209	210	105
985,58	202	207	103,5
985,87	209	206	103
986,16	208	209	104,5
986,45	209	209	104,5
986,74	208	207	103,5
987,03	212	215	107,5
987,32	212	206	103
987,6	208	207	103,5
987,89	210	211	105,5
988,18	212	205	102,5
988,47	207	209	104,5
988,76	208	213	106,5
989,05	212	214	107
989,33	209	209	104,5
989,62	208	210	105
989,91	210	213	106,5
990,2	206	205	102,5
990,49	212	207	103,5
990,77	210	210	105
991,06	214	208	104
991,35	208	208	104
991,64	208	207	103,5
991,93	209	208	104
992,21	209	209	104,5
992,5	210	210	105
992,79	210	209	104,5
993,08	209	202	101
993,36	209	208	104
993,65	207	210	105
993,94	210	212	106
994,23	212	207	103,5
994,51	207	208	104
994,8	207	208	104
995,09	206	213	106,5
995,37	208	208	104
995,66	210	211	105,5
995,95	209	208	104
996,23	207	212	106
996,52	211	210	105
996,81	210	208	104
997,09	210	208	104
997,38	208	209	104,5
997,67	211	211	105,5
997,95	204	210	105
998,24	207	208	104
998,53	209	204	102
998,81	210	209	104,5
999,1	208	208	104
999,39	214	210	105
999,67	209	213	106,5
999,96	206	210	105
1000,24	210	212	106
1000,53	210	205	102,5
1000,82	212	205	102,5
1001,1	212	209	104,5
1001,39	209	209	104,5
1001,67	210	206	103
1001,96	207	207	103,5
1002,25	209	210	105
1002,53	211	204	102
1002,82	210	209	104,5
1003,1	212	206	103
1003,39	208	209	104,5
1003,67	209	210	105
1003,96	205	207	103,5
1004,24	212	205	102,5
1004,53	213	209	104,5
1004,81	207	208	104
1005,1	209	210	105
1005,38	209	212	106
1005,67	208	209	104,5
1005,95	204	209	104,5
1006,24	213	210	105
1006,52	208	206	103
1006,81	207	210	105
1007,09	206	208	104
1007,38	211	208	104
1007,66	207	210	105
1007,95	210	206	103
1008,23	205	212	106
1008,51	212	209	104,5
1008,8	211	211	105,5
1009,08	209	211	105,5
1009,37	211	212	106
1009,65	210	213	106,5
1009,94	206	209	104,5
1010,22	207	207	103,5
1010,5	206	210	105
1010,79	213	208	104
1011,07	211	208	104
1011,36	214	204	102
1011,64	207	207	103,5
1011,92	203	208	104
1012,21	210	204	102
1012,49	208	207	103,5
1012,77	210	212	106
1013,06	209	211	105,5
1013,34	208	209	104,5
1013,62	210	212	106
1013,91	206	210	105
1014,19	207	204	102
1014,47	209	208	104
1014,76	209	205	102,5
1015,04	211	207	103,5
1015,32	208	209	104,5
1015,6	206	210	105
1015,89	213	205	102,5
1016,17	211	211	105,5
1016,45	210	209	104,5
1016,74	209	207	103,5
1017,02	211	208	104
1017,3	208	208	104
1017,58	210	206	103
1017,87	208	206	103
1018,15	212	209	104,5
1018,43	210	207	103,5
1018,71	210	208	104
1019	207	211	105,5
1019,28	206	209	104,5
1019,56	209	211	105,5
1019,84	212	207	103,5
1020,12	208	208	104
1020,41	207	207	103,5
1020,69	212	207	103,5
1020,97	211	208	104
1021,25	207	208	104
1021,53	210	211	105,5
1021,81	210	208	104
1022,1	215	202	101
1022,38	211	209	104,5
1022,66	214	209	104,5
1022,94	210	209	104,5
>>>>>End Processed Spectral Data<<<<<			
