SpectraSuite Data File
++++++++++++++++++++++++++++++++++++
Date: Wed Mar 11 16:55:13 CET 2026
User: User
Dark Spectrum Present: No
Reference Spectrum Present: No
Number of Sampled Component Spectra: 1
Spectrometers: USB2G10323
Integration Time (usec): 5000 (USB2G10323)
Spectra Averaged: 1 (USB2G10323)
Boxcar Smoothing: 0 (USB2G10323)
Correct for Electrical Dark: No (USB2G10323)
Strobe/Lamp Enabled: No (USB2G10323)
Correct for Detector Non-linearity: No (USB2G10323)
Correct for Stray Light: No (USB2G10323)
Number of Pixels in Processed Spectrum: 2048
>>>>>Begin Processed Spectral Data<<<<<
339,75	0,00
340,13	200,00
340,51	205,00
340,89	202,00
341,27	210,00
341,65	211,00
342,03	207,00
342,40	212,00
342,78	212,00
343,16	212,00
343,54	209,00
343,92	212,00
344,30	211,00
344,67	206,00
345,05	217,00
345,43	215,00
345,81	215,00
346,19	211,00
346,56	214,00
346,94	211,00
347,32	208,00
347,70	209,00
348,08	210,00
348,45	211,00
348,83	207,00
349,21	213,00
349,59	215,00
349,96	215,00
350,34	214,00
350,72	218,00
351,10	213,00
351,48	213,00
351,85	213,00
352,23	211,00
352,61	218,00
352,98	214,00
353,36	215,00
353,74	210,00
354,12	217,00
354,49	208,00
354,87	213,00
355,25	215,00
355,63	215,00
356,00	213,00
356,38	215,00
356,76	209,00
357,13	209,00
357,51	212,00
357,89	215,00
358,26	218,00
358,64	216,00
359,02	218,00
359,40	211,00
359,77	216,00
360,15	211,00
360,53	217,00
360,90	214,00
361,28	214,00
361,65	216,00
362,03	217,00
362,41	212,00
362,78	215,00
363,16	215,00
363,54	216,00
363,91	215,00
364,29	218,00
364,67	213,00
365,04	211,00
365,42	215,00
365,79	213,00
366,17	214,00
366,55	214,00
366,92	218,00
367,30	217,00
367,67	213,00
368,05	212,00
368,43	212,00
368,80	215,00
369,18	214,00
369,55	215,00
369,93	214,00
370,31	219,00
370,68	213,00
371,06	214,00
371,43	218,00
371,81	215,00
372,18	213,00
372,56	211,00
372,93	214,00
373,31	215,00
373,68	217,00
374,06	213,00
374,44	218,00
374,81	216,00
375,19	216,00
375,56	215,00
375,94	213,00
376,31	217,00
376,69	218,00
377,06	215,00
377,44	215,00
377,81	214,00
378,19	212,00
378,56	219,00
378,94	215,00
379,31	213,00
379,68	213,00
380,06	214,00
380,43	214,00
380,81	217,00
381,18	214,00
381,56	218,00
381,93	214,00
382,31	215,00
382,68	214,00
383,06	214,00
383,43	213,00
383,80	220,00
384,18	215,00
384,55	219,00
384,93	219,00
385,30	218,00
385,68	215,00
386,05	216,00
386,42	216,00
386,80	216,00
387,17	220,00
387,55	213,00
387,92	215,00
388,29	217,00
388,67	213,00
389,04	222,00
389,42	216,00
389,79	219,00
390,16	220,00
390,54	216,00
390,91	216,00
391,28	218,00
391,66	220,00
392,03	215,00
392,40	214,00
392,78	215,00
393,15	220,00
393,52	214,00
393,90	218,00
394,27	216,00
394,64	218,00
395,02	216,00
395,39	213,00
395,76	222,00
396,14	215,00
396,51	217,00
396,88	220,00
397,26	214,00
397,63	220,00
398,00	217,00
398,37	221,00
398,75	217,00
399,12	221,00
399,49	216,00
399,86	217,00
400,24	218,00
400,61	213,00
400,98	220,00
401,36	219,00
401,73	223,00
402,10	216,00
402,47	218,00
402,85	219,00
403,22	222,00
403,59	218,00
403,96	218,00
404,33	222,00
404,71	223,00
405,08	218,00
405,45	213,00
405,82	222,00
406,19	226,00
406,57	221,00
406,94	222,00
407,31	220,00
407,68	223,00
408,05	225,00
408,43	224,00
408,80	223,00
409,17	226,00
409,54	229,00
409,91	225,00
410,28	225,00
410,66	228,00
411,03	223,00
411,40	234,00
411,77	231,00
412,14	229,00
412,51	236,00
412,88	240,00
413,26	234,00
413,63	237,00
414,00	243,00
414,37	241,00
414,74	246,00
415,11	246,00
415,48	251,00
415,85	249,00
416,23	258,00
416,60	257,00
416,97	256,00
417,34	265,00
417,71	265,00
418,08	270,00
418,45	267,00
418,82	276,00
419,19	285,00
419,56	286,00
419,93	298,00
420,30	308,00
420,67	311,00
421,04	313,00
421,42	317,00
421,79	322,00
422,16	340,00
422,53	343,00
422,90	360,00
423,27	355,00
423,64	370,00
424,01	379,00
424,38	386,00
424,75	406,00
425,12	417,00
425,49	422,00
425,86	437,00
426,23	449,00
426,60	466,00
426,97	484,00
427,34	491,00
427,71	511,00
428,08	537,00
428,45	546,00
428,82	567,00
429,19	596,00
429,56	612,00
429,92	641,00
430,29	654,00
430,66	689,00
431,03	713,00
431,40	732,00
431,77	765,00
432,14	809,00
432,51	836,00
432,88	889,00
433,25	926,00
433,62	957,00
433,99	1004,00
434,36	1046,00
434,73	1125,00
435,09	1161,00
435,46	1229,00
435,83	1290,00
436,20	1349,00
436,57	1373,00
436,94	1502,00
437,31	1535,00
437,68	1650,00
438,05	1691,00
438,41	1789,00
438,78	1922,00
439,15	1943,00
439,52	2072,00
439,89	2125,00
440,26	2233,00
440,62	2312,00
440,99	2521,00
441,36	2500,00
441,73	2613,00
442,10	2678,00
442,47	2826,00
442,83	2932,00
443,20	2970,00
443,57	3032,00
443,94	3136,00
444,31	3232,00
444,67	3403,00
445,04	3434,00
445,41	3409,00
445,78	3494,00
446,15	3622,00
446,51	3621,00
446,88	3673,00
447,25	3750,00
447,62	3711,00
447,98	3696,00
448,35	3734,00
448,72	3672,00
449,09	3737,00
449,46	3636,00
449,82	3546,00
450,19	3546,00
450,56	3531,00
450,92	3557,00
451,29	3417,00
451,66	3457,00
452,03	3366,00
452,39	3261,00
452,76	3187,00
453,13	3171,00
453,49	3159,00
453,86	3047,00
454,23	2981,00
454,60	2900,00
454,96	2854,00
455,33	2815,00
455,70	2701,00
456,06	2706,00
456,43	2636,00
456,80	2581,00
457,16	2571,00
457,53	2546,00
457,90	2433,00
458,26	2406,00
458,63	2388,00
459,00	2310,00
459,36	2306,00
459,73	2265,00
460,09	2221,00
460,46	2257,00
460,83	2214,00
461,19	2172,00
461,56	2158,00
461,93	2095,00
462,29	2124,00
462,66	2048,00
463,02	2005,00
463,39	1965,00
463,76	1925,00
464,12	1914,00
464,49	1871,00
464,85	1857,00
465,22	1817,00
465,58	1758,00
465,95	1721,00
466,32	1722,00
466,68	1695,00
467,05	1670,00
467,41	1639,00
467,78	1592,00
468,14	1574,00
468,51	1535,00
468,87	1504,00
469,24	1501,00
469,60	1461,00
469,97	1445,00
470,33	1428,00
470,70	1408,00
471,06	1360,00
471,43	1367,00
471,79	1343,00
472,16	1346,00
472,52	1342,00
472,89	1296,00
473,25	1281,00
473,62	1272,00
473,98	1258,00
474,35	1236,00
474,71	1231,00
475,08	1251,00
475,44	1202,00
475,81	1196,00
476,17	1176,00
476,54	1183,00
476,90	1159,00
477,27	1140,00
477,63	1145,00
477,99	1096,00
478,36	1127,00
478,72	1105,00
479,09	1091,00
479,45	1058,00
479,82	1068,00
480,18	1047,00
480,54	1053,00
480,91	1026,00
481,27	997,00
481,64	1002,00
482,00	981,00
482,36	968,00
482,73	949,00
483,09	939,00
483,45	917,00
483,82	902,00
484,18	899,00
484,55	892,00
484,91	866,00
485,27	867,00
485,64	860,00
486,00	833,00
486,36	800,00
486,73	804,00
487,09	794,00
487,45	786,00
487,82	762,00
488,18	759,00
488,54	749,00
488,91	748,00
489,27	721,00
489,63	722,00
489,99	701,00
490,36	697,00
490,72	682,00
491,08	676,00
491,45	667,00
491,81	655,00
492,17	642,00
492,53	627,00
492,90	626,00
493,26	613,00
493,62	600,00
493,98	597,00
494,35	590,00
494,71	582,00
495,07	579,00
495,43	572,00
495,80	559,00
496,16	557,00
496,52	543,00
496,88	532,00
497,25	532,00
497,61	522,00
497,97	516,00
498,33	518,00
498,69	511,00
499,06	505,00
499,42	489,00
499,78	476,00
500,14	474,00
500,50	468,00
500,86	459,00
501,23	454,00
501,59	441,00
501,95	429,00
502,31	420,00
502,67	421,00
503,03	402,00
503,40	409,00
503,76	396,00
504,12	389,00
504,48	384,00
504,84	379,00
505,20	367,00
505,56	352,00
505,93	356,00
506,29	345,00
506,65	337,00
507,01	336,00
507,37	335,00
507,73	321,00
508,09	310,00
508,45	304,00
508,81	298,00
509,17	294,00
509,53	288,00
509,90	286,00
510,26	284,00
510,62	279,00
510,98	266,00
511,34	271,00
511,70	263,00
512,06	260,00
512,42	259,00
512,78	254,00
513,14	246,00
513,50	245,00
513,86	246,00
514,22	241,00
514,58	238,00
514,94	234,00
515,30	234,00
515,66	230,00
516,02	235,00
516,38	228,00
516,74	230,00
517,10	230,00
517,46	230,00
517,82	225,00
518,18	225,00
518,54	220,00
518,90	220,00
519,26	217,00
519,62	220,00
519,98	216,00
520,34	216,00
520,70	216,00
521,06	225,00
521,42	221,00
521,78	218,00
522,14	221,00
522,49	225,00
522,85	220,00
523,21	220,00
523,57	219,00
523,93	218,00
524,29	220,00
524,65	212,00
525,01	217,00
525,37	220,00
525,73	220,00
526,08	211,00
526,44	215,00
526,80	218,00
527,16	220,00
527,52	213,00
527,88	214,00
528,24	217,00
528,60	217,00
528,95	214,00
529,31	216,00
529,67	216,00
530,03	222,00
530,39	213,00
530,75	219,00
531,10	220,00
531,46	222,00
531,82	219,00
532,18	211,00
532,54	214,00
532,89	220,00
533,25	216,00
533,61	218,00
533,97	218,00
534,33	215,00
534,68	215,00
535,04	215,00
535,40	216,00
535,76	221,00
536,12	220,00
536,47	221,00
536,83	219,00
537,19	219,00
537,55	219,00
537,90	219,00
538,26	216,00
538,62	214,00
538,98	214,00
539,33	213,00
539,69	215,00
540,05	220,00
540,40	218,00
540,76	220,00
541,12	219,00
541,48	215,00
541,83	221,00
542,19	218,00
542,55	215,00
542,90	218,00
543,26	215,00
543,62	217,00
543,97	215,00
544,33	219,00
544,69	213,00
545,04	215,00
545,40	213,00
545,76	216,00
546,11	216,00
546,47	219,00
546,83	212,00
547,18	218,00
547,54	217,00
547,89	216,00
548,25	219,00
548,61	216,00
548,96	219,00
549,32	217,00
549,68	217,00
550,03	214,00
550,39	216,00
550,74	216,00
551,10	217,00
551,45	217,00
551,81	217,00
552,17	214,00
552,52	216,00
552,88	213,00
553,23	215,00
553,59	217,00
553,94	219,00
554,30	220,00
554,66	217,00
555,01	217,00
555,37	218,00
555,72	220,00
556,08	218,00
556,43	215,00
556,79	216,00
557,14	217,00
557,50	214,00
557,85	216,00
558,21	216,00
558,56	218,00
558,92	213,00
559,27	216,00
559,63	216,00
559,98	215,00
560,34	215,00
560,69	214,00
561,05	215,00
561,40	214,00
561,76	217,00
562,11	215,00
562,46	215,00
562,82	218,00
563,17	218,00
563,53	217,00
563,88	216,00
564,24	217,00
564,59	212,00
564,95	217,00
565,30	216,00
565,65	216,00
566,01	216,00
566,36	215,00
566,72	213,00
567,07	217,00
567,42	214,00
567,78	217,00
568,13	217,00
568,48	211,00
568,84	214,00
569,19	214,00
569,55	218,00
569,90	215,00
570,25	214,00
570,61	218,00
570,96	214,00
571,31	214,00
571,67	210,00
572,02	216,00
572,37	216,00
572,73	216,00
573,08	218,00
573,43	217,00
573,79	220,00
574,14	218,00
574,49	213,00
574,85	219,00
575,20	216,00
575,55	215,00
575,90	213,00
576,26	222,00
576,61	217,00
576,96	217,00
577,31	218,00
577,67	214,00
578,02	219,00
578,37	217,00
578,73	219,00
579,08	217,00
579,43	219,00
579,78	218,00
580,13	223,00
580,49	214,00
580,84	218,00
581,19	214,00
581,54	219,00
581,90	220,00
582,25	220,00
582,60	218,00
582,95	220,00
583,30	220,00
583,66	221,00
584,01	219,00
584,36	215,00
584,71	218,00
585,06	221,00
585,41	220,00
585,77	217,00
586,12	214,00
586,47	219,00
586,82	217,00
587,17	221,00
587,52	220,00
587,88	222,00
588,23	218,00
588,58	222,00
588,93	221,00
589,28	218,00
589,63	225,00
589,98	224,00
590,33	221,00
590,68	221,00
591,04	225,00
591,39	222,00
591,74	222,00
592,09	228,00
592,44	221,00
592,79	228,00
593,14	225,00
593,49	228,00
593,84	229,00
594,19	230,00
594,54	233,00
594,89	238,00
595,24	239,00
595,59	237,00
595,94	248,00
596,30	259,00
596,65	257,00
597,00	272,00
597,35	275,00
597,70	293,00
598,05	307,00
598,40	324,00
598,75	336,00
599,10	362,00
599,45	388,00
599,80	409,00
600,15	436,00
600,50	473,00
600,85	515,00
601,20	546,00
601,54	583,00
601,89	649,00
602,24	691,00
602,59	731,00
602,94	794,00
603,29	851,00
603,64	912,00
603,99	970,00
604,34	1029,00
604,69	1099,00
605,04	1174,00
605,39	1237,00
605,74	1321,00
606,09	1405,00
606,44	1470,00
606,78	1536,00
607,13	1622,00
607,48	1692,00
607,83	1793,00
608,18	1817,00
608,53	1905,00
608,88	1971,00
609,23	2076,00
609,57	2128,00
609,92	2154,00
610,27	2241,00
610,62	2348,00
610,97	2437,00
611,32	2474,00
611,67	2530,00
612,01	2530,00
612,36	2615,00
612,71	2667,00
613,06	2752,00
613,41	2779,00
613,75	2789,00
614,10	2818,00
614,45	2862,00
614,80	2920,00
615,15	2924,00
615,49	2950,00
615,84	3011,00
616,19	3050,00
616,54	3031,00
616,89	3036,00
617,23	3052,00
617,58	3084,00
617,93	3093,00
618,28	3108,00
618,62	3121,00
618,97	3138,00
619,32	3146,00
619,67	3165,00
620,01	3154,00
620,36	3172,00
620,71	3214,00
621,05	3203,00
621,40	3212,00
621,75	3175,00
622,10	3200,00
622,44	3159,00
622,79	3211,00
623,14	3240,00
623,48	3234,00
623,83	3180,00
624,18	3217,00
624,52	3180,00
624,87	3192,00
625,22	3205,00
625,56	3208,00
625,91	3164,00
626,26	3094,00
626,60	3131,00
626,95	3120,00
627,30	3118,00
627,64	3094,00
627,99	3105,00
628,33	3079,00
628,68	3068,00
629,03	3102,00
629,37	3052,00
629,72	3048,00
630,07	3051,00
630,41	2981,00
630,76	2978,00
631,10	2983,00
631,45	2968,00
631,79	2959,00
632,14	2959,00
632,49	2913,00
632,83	2881,00
633,18	2874,00
633,52	2908,00
633,87	2844,00
634,21	2836,00
634,56	2804,00
634,90	2821,00
635,25	2804,00
635,60	2787,00
635,94	2749,00
636,29	2732,00
636,63	2669,00
636,98	2680,00
637,32	2699,00
637,67	2638,00
638,01	2629,00
638,36	2628,00
638,70	2588,00
639,05	2587,00
639,39	2573,00
639,73	2566,00
640,08	2505,00
640,42	2528,00
640,77	2518,00
641,11	2495,00
641,46	2463,00
641,80	2458,00
642,15	2450,00
642,49	2433,00
642,84	2422,00
643,18	2389,00
643,52	2416,00
643,87	2350,00
644,21	2387,00
644,56	2349,00
644,90	2315,00
645,24	2295,00
645,59	2306,00
645,93	2257,00
646,28	2236,00
646,62	2197,00
646,96	2187,00
647,31	2198,00
647,65	2202,00
647,99	2173,00
648,34	2162,00
648,68	2145,00
649,03	2139,00
649,37	2082,00
649,71	2086,00
650,06	2067,00
650,40	2037,00
650,74	1992,00
651,09	2041,00
651,43	2013,00
651,77	1969,00
652,11	1946,00
652,46	1949,00
652,80	1938,00
653,14	1961,00
653,49	1917,00
653,83	1915,00
654,17	1877,00
654,52	1851,00
654,86	1850,00
655,20	1841,00
655,54	1832,00
655,89	1804,00
656,23	1790,00
656,57	1775,00
656,91	1751,00
657,26	1733,00
657,60	1720,00
657,94	1716,00
658,28	1691,00
658,62	1688,00
658,97	1676,00
659,31	1677,00
659,65	1651,00
659,99	1611,00
660,33	1616,00
660,68	1600,00
661,02	1587,00
661,36	1584,00
661,70	1582,00
662,04	1566,00
662,39	1557,00
662,73	1533,00
663,07	1514,00
663,41	1515,00
663,75	1527,00
664,09	1477,00
664,44	1482,00
664,78	1452,00
665,12	1443,00
665,46	1439,00
665,80	1438,00
666,14	1422,00
666,48	1399,00
666,82	1389,00
667,16	1397,00
667,51	1379,00
667,85	1372,00
668,19	1344,00
668,53	1343,00
668,87	1349,00
669,21	1318,00
669,55	1299,00
669,89	1283,00
670,23	1280,00
670,57	1268,00
670,91	1252,00
671,25	1255,00
671,59	1240,00
671,93	1245,00
672,28	1232,00
672,62	1187,00
672,96	1184,00
673,30	1177,00
673,64	1157,00
673,98	1165,00
674,32	1164,00
674,66	1146,00
675,00	1134,00
675,34	1112,00
675,68	1115,00
676,02	1118,00
676,36	1090,00
676,70	1064,00
677,04	1076,00
677,38	1049,00
677,71	1062,00
678,05	1032,00
678,39	1020,00
678,73	1018,00
679,07	1027,00
679,41	1009,00
679,75	998,00
680,09	973,00
680,43	988,00
680,77	975,00
681,11	967,00
681,45	968,00
681,79	951,00
682,13	941,00
682,46	935,00
682,80	926,00
683,14	922,00
683,48	915,00
683,82	906,00
684,16	879,00
684,50	898,00
684,84	873,00
685,17	864,00
685,51	853,00
685,85	850,00
686,19	845,00
686,53	829,00
686,87	824,00
687,21	825,00
687,54	802,00
687,88	796,00
688,22	793,00
688,56	793,00
688,90	772,00
689,23	787,00
689,57	770,00
689,91	754,00
690,25	748,00
690,59	756,00
690,92	748,00
691,26	736,00
691,60	722,00
691,94	728,00
692,27	717,00
692,61	718,00
692,95	711,00
693,29	696,00
693,62	685,00
693,96	688,00
694,30	694,00
694,64	682,00
694,97	665,00
695,31	653,00
695,65	659,00
695,98	671,00
696,32	640,00
696,66	642,00
697,00	642,00
697,33	626,00
697,67	632,00
698,01	615,00
698,34	621,00
698,68	600,00
699,02	607,00
699,35	606,00
699,69	601,00
700,03	586,00
700,36	572,00
700,70	578,00
701,04	581,00
701,37	572,00
701,71	580,00
702,04	563,00
702,38	572,00
702,72	561,00
703,05	558,00
703,39	545,00
703,72	544,00
704,06	546,00
704,40	537,00
704,73	544,00
705,07	525,00
705,40	524,00
705,74	531,00
706,08	513,00
706,41	522,00
706,75	510,00
707,08	514,00
707,42	500,00
707,75	494,00
708,09	491,00
708,42	490,00
708,76	492,00
709,09	488,00
709,43	483,00
709,76	476,00
710,10	473,00
710,43	465,00
710,77	469,00
711,10	474,00
711,44	465,00
711,77	461,00
712,11	459,00
712,44	451,00
712,78	455,00
713,11	449,00
713,45	442,00
713,78	441,00
714,12	442,00
714,45	439,00
714,79	439,00
715,12	437,00
715,45	438,00
715,79	435,00
716,12	422,00
716,46	428,00
716,79	412,00
717,13	421,00
717,46	407,00
717,79	414,00
718,13	412,00
718,46	402,00
718,80	408,00
719,13	408,00
719,46	400,00
719,80	396,00
720,13	398,00
720,46	389,00
720,80	392,00
721,13	386,00
721,46	384,00
721,80	380,00
722,13	384,00
722,46	379,00
722,80	374,00
723,13	366,00
723,46	379,00
723,80	372,00
724,13	371,00
724,46	366,00
724,80	372,00
725,13	365,00
725,46	362,00
725,79	358,00
726,13	354,00
726,46	353,00
726,79	353,00
727,13	357,00
727,46	352,00
727,79	347,00
728,12	350,00
728,46	346,00
728,79	352,00
729,12	345,00
729,45	340,00
729,79	341,00
730,12	340,00
730,45	340,00
730,78	346,00
731,11	338,00
731,45	326,00
731,78	336,00
732,11	325,00
732,44	326,00
732,77	315,00
733,11	328,00
733,44	327,00
733,77	327,00
734,10	321,00
734,43	319,00
734,76	326,00
735,09	316,00
735,43	319,00
735,76	314,00
736,09	325,00
736,42	310,00
736,75	316,00
737,08	320,00
737,41	314,00
737,75	308,00
738,08	306,00
738,41	308,00
738,74	306,00
739,07	300,00
739,40	301,00
739,73	303,00
740,06	302,00
740,39	296,00
740,72	298,00
741,05	301,00
741,38	289,00
741,71	295,00
742,04	302,00
742,38	293,00
742,71	296,00
743,04	293,00
743,37	294,00
743,70	294,00
744,03	296,00
744,36	284,00
744,69	294,00
745,02	295,00
745,35	293,00
745,68	289,00
746,01	285,00
746,34	287,00
746,67	289,00
747,00	281,00
747,33	281,00
747,66	282,00
747,99	280,00
748,31	284,00
748,64	284,00
748,97	275,00
749,30	279,00
749,63	277,00
749,96	273,00
750,29	278,00
750,62	281,00
750,95	277,00
751,28	270,00
751,61	276,00
751,94	274,00
752,27	272,00
752,59	269,00
752,92	266,00
753,25	274,00
753,58	269,00
753,91	270,00
754,24	261,00
754,57	261,00
754,90	265,00
755,22	267,00
755,55	269,00
755,88	261,00
756,21	265,00
756,54	268,00
756,87	262,00
757,19	262,00
757,52	260,00
757,85	264,00
758,18	262,00
758,51	260,00
758,83	262,00
759,16	257,00
759,49	259,00
759,82	255,00
760,15	261,00
760,47	254,00
760,80	255,00
761,13	259,00
761,46	261,00
761,78	260,00
762,11	255,00
762,44	259,00
762,77	255,00
763,09	251,00
763,42	252,00
763,75	252,00
764,07	254,00
764,40	246,00
764,73	252,00
765,06	252,00
765,38	246,00
765,71	244,00
766,04	246,00
766,36	244,00
766,69	250,00
767,02	249,00
767,34	245,00
767,67	245,00
768,00	246,00
768,32	250,00
768,65	244,00
768,98	245,00
769,30	243,00
769,63	242,00
769,96	246,00
770,28	243,00
770,61	245,00
770,93	242,00
771,26	246,00
771,59	241,00
771,91	243,00
772,24	241,00
772,56	240,00
772,89	241,00
773,22	243,00
773,54	240,00
773,87	244,00
774,19	238,00
774,52	243,00
774,84	236,00
775,17	241,00
775,50	239,00
775,82	237,00
776,15	234,00
776,47	237,00
776,80	236,00
777,12	237,00
777,45	235,00
777,77	234,00
778,10	240,00
778,42	234,00
778,75	235,00
779,07	230,00
779,40	229,00
779,72	239,00
780,05	237,00
780,37	230,00
780,70	238,00
781,02	234,00
781,34	230,00
781,67	231,00
781,99	232,00
782,32	233,00
782,64	231,00
782,97	233,00
783,29	230,00
783,62	232,00
783,94	228,00
784,26	233,00
784,59	231,00
784,91	231,00
785,24	233,00
785,56	226,00
785,88	231,00
786,21	235,00
786,53	226,00
786,85	229,00
787,18	230,00
787,50	230,00
787,83	230,00
788,15	229,00
788,47	227,00
788,80	222,00
789,12	228,00
789,44	227,00
789,77	228,00
790,09	226,00
790,41	226,00
790,74	226,00
791,06	225,00
791,38	225,00
791,70	227,00
792,03	222,00
792,35	225,00
792,67	226,00
793,00	223,00
793,32	227,00
793,64	226,00
793,96	225,00
794,29	226,00
794,61	226,00
794,93	222,00
795,25	222,00
795,58	230,00
795,90	226,00
796,22	223,00
796,54	222,00
796,86	229,00
797,19	222,00
797,51	228,00
797,83	226,00
798,15	228,00
798,47	224,00
798,80	227,00
799,12	228,00
799,44	224,00
799,76	219,00
800,08	220,00
800,40	222,00
800,73	222,00
801,05	223,00
801,37	227,00
801,69	219,00
802,01	227,00
802,33	220,00
802,65	219,00
802,98	223,00
803,30	223,00
803,62	227,00
803,94	220,00
804,26	223,00
804,58	225,00
804,90	221,00
805,22	223,00
805,54	221,00
805,86	220,00
806,18	226,00
806,51	218,00
806,83	223,00
807,15	217,00
807,47	219,00
807,79	221,00
808,11	220,00
808,43	221,00
808,75	221,00
809,07	224,00
809,39	222,00
809,71	220,00
810,03	222,00
810,35	220,00
810,67	222,00
810,99	220,00
811,31	221,00
811,63	215,00
811,95	219,00
812,27	220,00
812,59	218,00
812,91	217,00
813,23	219,00
813,55	222,00
813,87	224,00
814,18	220,00
814,50	223,00
814,82	218,00
815,14	216,00
815,46	219,00
815,78	217,00
816,10	223,00
816,42	213,00
816,74	217,00
817,06	217,00
817,38	220,00
817,69	220,00
818,01	221,00
818,33	221,00
818,65	214,00
818,97	218,00
819,29	216,00
819,61	216,00
819,93	217,00
820,24	216,00
820,56	218,00
820,88	214,00
821,20	218,00
821,52	215,00
821,83	218,00
822,15	220,00
822,47	219,00
822,79	218,00
823,11	218,00
823,43	223,00
823,74	215,00
824,06	221,00
824,38	221,00
824,70	219,00
825,01	215,00
825,33	218,00
825,65	220,00
825,97	216,00
826,28	218,00
826,60	218,00
826,92	215,00
827,24	218,00
827,55	213,00
827,87	223,00
828,19	215,00
828,50	219,00
828,82	213,00
829,14	216,00
829,46	217,00
829,77	221,00
830,09	214,00
830,41	215,00
830,72	214,00
831,04	217,00
831,36	219,00
831,67	216,00
831,99	218,00
832,31	215,00
832,62	212,00
832,94	215,00
833,25	218,00
833,57	215,00
833,89	218,00
834,20	212,00
834,52	217,00
834,84	218,00
835,15	214,00
835,47	216,00
835,78	212,00
836,10	220,00
836,42	217,00
836,73	220,00
837,05	214,00
837,36	219,00
837,68	218,00
837,99	219,00
838,31	215,00
838,62	215,00
838,94	214,00
839,26	217,00
839,57	221,00
839,89	219,00
840,20	215,00
840,52	216,00
840,83	210,00
841,15	210,00
841,46	214,00
841,78	217,00
842,09	217,00
842,41	220,00
842,72	213,00
843,04	219,00
843,35	216,00
843,66	218,00
843,98	214,00
844,29	215,00
844,61	218,00
844,92	214,00
845,24	217,00
845,55	219,00
845,87	215,00
846,18	219,00
846,49	213,00
846,81	216,00
847,12	216,00
847,44	216,00
847,75	218,00
848,06	210,00
848,38	214,00
848,69	213,00
849,00	213,00
849,32	221,00
849,63	217,00
849,95	213,00
850,26	218,00
850,57	213,00
850,89	212,00
851,20	218,00
851,51	215,00
851,83	219,00
852,14	214,00
852,45	215,00
852,77	213,00
853,08	212,00
853,39	216,00
853,70	214,00
854,02	215,00
854,33	215,00
854,64	215,00
854,96	217,00
855,27	212,00
855,58	215,00
855,89	214,00
856,21	214,00
856,52	218,00
856,83	222,00
857,14	214,00
857,46	217,00
857,77	217,00
858,08	216,00
858,39	221,00
858,70	216,00
859,02	213,00
859,33	212,00
859,64	220,00
859,95	215,00
860,26	216,00
860,58	213,00
860,89	218,00
861,20	214,00
861,51	213,00
861,82	214,00
862,13	215,00
862,45	212,00
862,76	215,00
863,07	212,00
863,38	212,00
863,69	211,00
864,00	215,00
864,31	217,00
864,62	214,00
864,93	214,00
865,25	213,00
865,56	212,00
865,87	216,00
866,18	214,00
866,49	213,00
866,80	212,00
867,11	213,00
867,42	214,00
867,73	212,00
868,04	212,00
868,35	214,00
868,66	217,00
868,97	216,00
869,28	216,00
869,59	214,00
869,90	213,00
870,21	217,00
870,52	213,00
870,83	218,00
871,14	213,00
871,45	215,00
871,76	214,00
872,07	217,00
872,38	211,00
872,69	212,00
873,00	215,00
873,31	211,00
873,62	213,00
873,93	210,00
874,24	212,00
874,55	217,00
874,86	215,00
875,17	209,00
875,48	217,00
875,79	214,00
876,10	212,00
876,41	213,00
876,72	213,00
877,02	215,00
877,33	214,00
877,64	215,00
877,95	216,00
878,26	213,00
878,57	213,00
878,88	210,00
879,19	217,00
879,49	208,00
879,80	212,00
880,11	214,00
880,42	215,00
880,73	216,00
881,04	211,00
881,34	213,00
881,65	212,00
881,96	215,00
882,27	213,00
882,58	209,00
882,88	218,00
883,19	212,00
883,50	212,00
883,81	212,00
884,12	210,00
884,42	209,00
884,73	218,00
885,04	211,00
885,35	213,00
885,65	216,00
885,96	210,00
886,27	211,00
886,58	215,00
886,88	215,00
887,19	214,00
887,50	211,00
887,80	213,00
888,11	215,00
888,42	218,00
888,73	216,00
889,03	216,00
889,34	213,00
889,65	208,00
889,95	213,00
890,26	208,00
890,57	214,00
890,87	208,00
891,18	212,00
891,49	210,00
891,79	213,00
892,10	214,00
892,41	213,00
892,71	217,00
893,02	212,00
893,32	211,00
893,63	215,00
893,94	213,00
894,24	215,00
894,55	210,00
894,85	217,00
895,16	212,00
895,47	211,00
895,77	213,00
896,08	217,00
896,38	214,00
896,69	211,00
896,99	212,00
897,30	215,00
897,60	211,00
897,91	210,00
898,21	210,00
898,52	211,00
898,83	212,00
899,13	210,00
899,44	215,00
899,74	209,00
900,05	210,00
900,35	209,00
900,65	208,00
900,96	210,00
901,26	213,00
901,57	208,00
901,87	213,00
902,18	207,00
902,48	217,00
902,79	211,00
903,09	212,00
903,40	212,00
903,70	209,00
904,00	216,00
904,31	209,00
904,61	211,00
904,92	212,00
905,22	212,00
905,53	212,00
905,83	211,00
906,13	212,00
906,44	209,00
906,74	211,00
907,04	209,00
907,35	211,00
907,65	211,00
907,96	211,00
908,26	212,00
908,56	206,00
908,87	208,00
909,17	205,00
909,47	213,00
909,78	214,00
910,08	216,00
910,38	214,00
910,68	209,00
910,99	212,00
911,29	213,00
911,59	210,00
911,90	210,00
912,20	217,00
912,50	208,00
912,80	216,00
913,11	213,00
913,41	215,00
913,71	214,00
914,01	216,00
914,32	213,00
914,62	213,00
914,92	215,00
915,22	211,00
915,53	214,00
915,83	213,00
916,13	212,00
916,43	214,00
916,73	215,00
917,04	214,00
917,34	208,00
917,64	209,00
917,94	207,00
918,24	216,00
918,55	210,00
918,85	207,00
919,15	211,00
919,45	212,00
919,75	212,00
920,05	212,00
920,35	214,00
920,66	214,00
920,96	210,00
921,26	212,00
921,56	209,00
921,86	213,00
922,16	209,00
922,46	212,00
922,76	210,00
923,06	211,00
923,36	215,00
923,66	214,00
923,97	208,00
924,27	211,00
924,57	212,00
924,87	210,00
925,17	212,00
925,47	210,00
925,77	212,00
926,07	212,00
926,37	213,00
926,67	212,00
926,97	217,00
927,27	210,00
927,57	217,00
927,87	209,00
928,17	215,00
928,47	208,00
928,77	212,00
929,07	210,00
929,37	214,00
929,67	212,00
929,97	207,00
930,27	211,00
930,57	215,00
930,87	214,00
931,16	211,00
931,46	214,00
931,76	210,00
932,06	212,00
932,36	213,00
932,66	215,00
932,96	211,00
933,26	214,00
933,56	212,00
933,86	219,00
934,16	217,00
934,45	211,00
934,75	212,00
935,05	212,00
935,35	208,00
935,65	216,00
935,95	212,00
936,24	210,00
936,54	210,00
936,84	216,00
937,14	214,00
937,44	210,00
937,74	215,00
938,03	215,00
938,33	216,00
938,63	211,00
938,93	214,00
939,23	212,00
939,52	210,00
939,82	211,00
940,12	216,00
940,42	212,00
940,71	210,00
941,01	211,00
941,31	205,00
941,61	208,00
941,90	214,00
942,20	209,00
942,50	209,00
942,80	209,00
943,09	208,00
943,39	211,00
943,69	210,00
943,98	214,00
944,28	212,00
944,58	210,00
944,87	206,00
945,17	212,00
945,47	211,00
945,76	209,00
946,06	217,00
946,36	215,00
946,65	209,00
946,95	214,00
947,25	214,00
947,54	212,00
947,84	211,00
948,14	214,00
948,43	216,00
948,73	215,00
949,02	207,00
949,32	212,00
949,62	212,00
949,91	210,00
950,21	210,00
950,50	211,00
950,80	211,00
951,09	209,00
951,39	211,00
951,69	211,00
951,98	211,00
952,28	214,00
952,57	214,00
952,87	208,00
953,16	209,00
953,46	213,00
953,75	208,00
954,05	215,00
954,34	213,00
954,64	210,00
954,93	212,00
955,23	213,00
955,52	213,00
955,82	211,00
956,11	213,00
956,41	214,00
956,70	217,00
957,00	209,00
957,29	208,00
957,58	206,00
957,88	209,00
958,17	213,00
958,47	218,00
958,76	211,00
959,06	210,00
959,35	216,00
959,64	213,00
959,94	213,00
960,23	208,00
960,52	209,00
960,82	217,00
961,11	212,00
961,41	209,00
961,70	214,00
961,99	214,00
962,29	216,00
962,58	212,00
962,87	212,00
963,17	212,00
963,46	208,00
963,75	213,00
964,05	212,00
964,34	216,00
964,63	211,00
964,93	210,00
965,22	214,00
965,51	210,00
965,80	209,00
966,10	213,00
966,39	212,00
966,68	210,00
966,97	206,00
967,27	214,00
967,56	213,00
967,85	216,00
968,14	212,00
968,44	207,00
968,73	212,00
969,02	216,00
969,31	214,00
969,61	208,00
969,90	211,00
970,19	213,00
970,48	215,00
970,77	215,00
971,07	211,00
971,36	215,00
971,65	212,00
971,94	214,00
972,23	210,00
972,52	209,00
972,81	210,00
973,11	212,00
973,40	210,00
973,69	215,00
973,98	209,00
974,27	209,00
974,56	214,00
974,85	204,00
975,14	215,00
975,44	207,00
975,73	210,00
976,02	208,00
976,31	212,00
976,60	207,00
976,89	209,00
977,18	214,00
977,47	215,00
977,76	208,00
978,05	209,00
978,34	214,00
978,63	208,00
978,92	209,00
979,21	208,00
979,50	208,00
979,79	211,00
980,08	214,00
980,37	213,00
980,66	213,00
980,95	209,00
981,24	212,00
981,53	213,00
981,82	215,00
982,11	213,00
982,40	210,00
982,69	210,00
982,98	212,00
983,27	214,00
983,56	209,00
983,85	211,00
984,14	214,00
984,43	209,00
984,72	212,00
985,01	210,00
985,29	209,00
985,58	210,00
985,87	213,00
986,16	209,00
986,45	211,00
986,74	208,00
987,03	212,00
987,32	212,00
987,60	211,00
987,89	213,00
988,18	207,00
988,47	213,00
988,76	211,00
989,05	208,00
989,33	213,00
989,62	206,00
989,91	213,00
990,20	214,00
990,49	205,00
990,77	209,00
991,06	212,00
991,35	216,00
991,64	214,00
991,93	217,00
992,21	213,00
992,50	211,00
992,79	213,00
993,08	210,00
993,36	214,00
993,65	213,00
993,94	210,00
994,23	213,00
994,51	212,00
994,80	210,00
995,09	209,00
995,37	214,00
995,66	212,00
995,95	214,00
996,23	212,00
996,52	210,00
996,81	212,00
997,09	213,00
997,38	212,00
997,67	213,00
997,95	210,00
998,24	211,00
998,53	215,00
998,81	211,00
999,10	209,00
999,39	210,00
999,67	214,00
999,96	212,00
1000,24	211,00
1000,53	213,00
1000,82	214,00
1001,10	210,00
1001,39	210,00
1001,67	212,00
1001,96	210,00
1002,25	217,00
1002,53	213,00
1002,82	216,00
1003,10	212,00
1003,39	213,00
1003,67	209,00
1003,96	212,00
1004,24	210,00
1004,53	217,00
1004,81	208,00
1005,10	212,00
1005,38	208,00
1005,67	214,00
1005,95	210,00
1006,24	215,00
1006,52	215,00
1006,81	208,00
1007,09	210,00
1007,38	217,00
1007,66	214,00
1007,95	213,00
1008,23	214,00
1008,51	208,00
1008,80	211,00
1009,08	211,00
1009,37	210,00
1009,65	214,00
1009,94	210,00
1010,22	212,00
1010,50	213,00
1010,79	209,00
1011,07	213,00
1011,36	215,00
1011,64	211,00
1011,92	212,00
1012,21	210,00
1012,49	210,00
1012,77	212,00
1013,06	208,00
1013,34	215,00
1013,62	209,00
1013,91	209,00
1014,19	208,00
1014,47	212,00
1014,76	208,00
1015,04	213,00
1015,32	214,00
1015,60	213,00
1015,89	213,00
1016,17	214,00
1016,45	212,00
1016,74	210,00
1017,02	211,00
1017,30	211,00
1017,58	213,00
1017,87	214,00
1018,15	207,00
1018,43	216,00
1018,71	206,00
1019,00	209,00
1019,28	208,00
1019,56	212,00
1019,84	214,00
1020,12	207,00
1020,41	212,00
1020,69	207,00
1020,97	211,00
1021,25	212,00
1021,53	205,00
1021,81	212,00
1022,10	212,00
1022,38	213,00
1022,66	213,00
1022,94	216,00
>>>>>End Processed Spectral Data<<<<<
