SpectraSuite Data File
++++++++++++++++++++++++++++++++++++
Date: Wed Mar 11 16:53:48 CET 2026
User: User
Dark Spectrum Present: No
Reference Spectrum Present: No
Number of Sampled Component Spectra: 1
Spectrometers: USB2G10323
Integration Time (usec): 27000 (USB2G10323)
Spectra Averaged: 1 (USB2G10323)
Boxcar Smoothing: 0 (USB2G10323)
Correct for Electrical Dark: No (USB2G10323)
Strobe/Lamp Enabled: No (USB2G10323)
Correct for Detector Non-linearity: No (USB2G10323)
Correct for Stray Light: No (USB2G10323)
Number of Pixels in Processed Spectrum: 2048
>>>>>Begin Processed Spectral Data<<<<<
339,75	0,00
340,13	202,00
340,51	205,00
340,89	204,00
341,27	204,00
341,65	210,00
342,03	208,00
342,40	212,00
342,78	208,00
343,16	214,00
343,54	211,00
343,92	210,00
344,30	209,00
344,67	209,00
345,05	208,00
345,43	213,00
345,81	216,00
346,19	213,00
346,56	212,00
346,94	211,00
347,32	213,00
347,70	215,00
348,08	214,00
348,45	214,00
348,83	211,00
349,21	210,00
349,59	211,00
349,96	213,00
350,34	211,00
350,72	211,00
351,10	210,00
351,48	213,00
351,85	212,00
352,23	218,00
352,61	221,00
352,98	211,00
353,36	209,00
353,74	209,00
354,12	214,00
354,49	214,00
354,87	211,00
355,25	216,00
355,63	211,00
356,00	214,00
356,38	213,00
356,76	221,00
357,13	214,00
357,51	214,00
357,89	212,00
358,26	214,00
358,64	208,00
359,02	215,00
359,40	213,00
359,77	214,00
360,15	211,00
360,53	213,00
360,90	214,00
361,28	214,00
361,65	217,00
362,03	214,00
362,41	209,00
362,78	215,00
363,16	215,00
363,54	210,00
363,91	215,00
364,29	214,00
364,67	209,00
365,04	216,00
365,42	214,00
365,79	212,00
366,17	215,00
366,55	212,00
366,92	211,00
367,30	213,00
367,67	213,00
368,05	215,00
368,43	212,00
368,80	212,00
369,18	211,00
369,55	215,00
369,93	213,00
370,31	211,00
370,68	210,00
371,06	208,00
371,43	215,00
371,81	212,00
372,18	214,00
372,56	213,00
372,93	212,00
373,31	214,00
373,68	212,00
374,06	214,00
374,44	210,00
374,81	212,00
375,19	214,00
375,56	215,00
375,94	209,00
376,31	213,00
376,69	212,00
377,06	217,00
377,44	210,00
377,81	212,00
378,19	212,00
378,56	211,00
378,94	213,00
379,31	211,00
379,68	217,00
380,06	211,00
380,43	214,00
380,81	220,00
381,18	214,00
381,56	211,00
381,93	211,00
382,31	214,00
382,68	214,00
383,06	210,00
383,43	212,00
383,80	211,00
384,18	216,00
384,55	211,00
384,93	212,00
385,30	216,00
385,68	218,00
386,05	213,00
386,42	212,00
386,80	213,00
387,17	213,00
387,55	212,00
387,92	213,00
388,29	208,00
388,67	208,00
389,04	213,00
389,42	214,00
389,79	213,00
390,16	212,00
390,54	214,00
390,91	214,00
391,28	210,00
391,66	212,00
392,03	219,00
392,40	214,00
392,78	214,00
393,15	207,00
393,52	215,00
393,90	208,00
394,27	211,00
394,64	214,00
395,02	213,00
395,39	212,00
395,76	212,00
396,14	211,00
396,51	212,00
396,88	217,00
397,26	215,00
397,63	215,00
398,00	216,00
398,37	215,00
398,75	210,00
399,12	216,00
399,49	209,00
399,86	213,00
400,24	218,00
400,61	208,00
400,98	214,00
401,36	212,00
401,73	215,00
402,10	213,00
402,47	208,00
402,85	205,00
403,22	210,00
403,59	212,00
403,96	211,00
404,33	208,00
404,71	209,00
405,08	211,00
405,45	214,00
405,82	211,00
406,19	211,00
406,57	214,00
406,94	213,00
407,31	206,00
407,68	213,00
408,05	210,00
408,43	213,00
408,80	207,00
409,17	212,00
409,54	210,00
409,91	211,00
410,28	213,00
410,66	213,00
411,03	210,00
411,40	213,00
411,77	213,00
412,14	215,00
412,51	216,00
412,88	214,00
413,26	211,00
413,63	213,00
414,00	213,00
414,37	210,00
414,74	209,00
415,11	209,00
415,48	214,00
415,85	215,00
416,23	215,00
416,60	214,00
416,97	219,00
417,34	215,00
417,71	216,00
418,08	215,00
418,45	214,00
418,82	212,00
419,19	214,00
419,56	214,00
419,93	212,00
420,30	215,00
420,67	217,00
421,04	216,00
421,42	217,00
421,79	216,00
422,16	212,00
422,53	216,00
422,90	216,00
423,27	213,00
423,64	211,00
424,01	212,00
424,38	217,00
424,75	216,00
425,12	215,00
425,49	219,00
425,86	218,00
426,23	216,00
426,60	217,00
426,97	215,00
427,34	213,00
427,71	215,00
428,08	211,00
428,45	214,00
428,82	215,00
429,19	209,00
429,56	215,00
429,92	216,00
430,29	211,00
430,66	212,00
431,03	217,00
431,40	211,00
431,77	212,00
432,14	211,00
432,51	210,00
432,88	211,00
433,25	214,00
433,62	212,00
433,99	215,00
434,36	214,00
434,73	220,00
435,09	214,00
435,46	215,00
435,83	214,00
436,20	213,00
436,57	216,00
436,94	214,00
437,31	210,00
437,68	213,00
438,05	214,00
438,41	210,00
438,78	215,00
439,15	212,00
439,52	217,00
439,89	213,00
440,26	219,00
440,62	214,00
440,99	214,00
441,36	212,00
441,73	215,00
442,10	208,00
442,47	208,00
442,83	213,00
443,20	216,00
443,57	209,00
443,94	216,00
444,31	214,00
444,67	208,00
445,04	209,00
445,41	215,00
445,78	211,00
446,15	209,00
446,51	213,00
446,88	212,00
447,25	214,00
447,62	218,00
447,98	213,00
448,35	211,00
448,72	213,00
449,09	211,00
449,46	208,00
449,82	211,00
450,19	215,00
450,56	216,00
450,92	212,00
451,29	218,00
451,66	212,00
452,03	213,00
452,39	212,00
452,76	216,00
453,13	212,00
453,49	214,00
453,86	215,00
454,23	212,00
454,60	213,00
454,96	212,00
455,33	215,00
455,70	214,00
456,06	208,00
456,43	211,00
456,80	211,00
457,16	216,00
457,53	216,00
457,90	214,00
458,26	209,00
458,63	215,00
459,00	217,00
459,36	211,00
459,73	214,00
460,09	216,00
460,46	211,00
460,83	216,00
461,19	214,00
461,56	215,00
461,93	212,00
462,29	212,00
462,66	215,00
463,02	214,00
463,39	209,00
463,76	212,00
464,12	210,00
464,49	214,00
464,85	212,00
465,22	212,00
465,58	216,00
465,95	216,00
466,32	211,00
466,68	213,00
467,05	213,00
467,41	216,00
467,78	218,00
468,14	216,00
468,51	215,00
468,87	217,00
469,24	215,00
469,60	211,00
469,97	210,00
470,33	218,00
470,70	218,00
471,06	211,00
471,43	215,00
471,79	214,00
472,16	212,00
472,52	214,00
472,89	211,00
473,25	217,00
473,62	213,00
473,98	215,00
474,35	209,00
474,71	213,00
475,08	214,00
475,44	216,00
475,81	214,00
476,17	210,00
476,54	210,00
476,90	215,00
477,27	216,00
477,63	216,00
477,99	215,00
478,36	214,00
478,72	214,00
479,09	210,00
479,45	216,00
479,82	213,00
480,18	215,00
480,54	211,00
480,91	220,00
481,27	217,00
481,64	215,00
482,00	216,00
482,36	208,00
482,73	214,00
483,09	211,00
483,45	214,00
483,82	216,00
484,18	211,00
484,55	212,00
484,91	213,00
485,27	215,00
485,64	216,00
486,00	210,00
486,36	216,00
486,73	214,00
487,09	214,00
487,45	216,00
487,82	212,00
488,18	212,00
488,54	216,00
488,91	215,00
489,27	209,00
489,63	211,00
489,99	216,00
490,36	211,00
490,72	209,00
491,08	212,00
491,45	214,00
491,81	216,00
492,17	214,00
492,53	214,00
492,90	210,00
493,26	205,00
493,62	217,00
493,98	210,00
494,35	219,00
494,71	210,00
495,07	214,00
495,43	214,00
495,80	216,00
496,16	221,00
496,52	212,00
496,88	207,00
497,25	215,00
497,61	214,00
497,97	211,00
498,33	209,00
498,69	216,00
499,06	214,00
499,42	213,00
499,78	211,00
500,14	213,00
500,50	218,00
500,86	213,00
501,23	216,00
501,59	211,00
501,95	212,00
502,31	210,00
502,67	210,00
503,03	214,00
503,40	212,00
503,76	216,00
504,12	210,00
504,48	215,00
504,84	214,00
505,20	211,00
505,56	212,00
505,93	215,00
506,29	214,00
506,65	217,00
507,01	212,00
507,37	208,00
507,73	217,00
508,09	214,00
508,45	216,00
508,81	216,00
509,17	214,00
509,53	209,00
509,90	216,00
510,26	216,00
510,62	210,00
510,98	211,00
511,34	214,00
511,70	217,00
512,06	219,00
512,42	214,00
512,78	212,00
513,14	215,00
513,50	217,00
513,86	210,00
514,22	215,00
514,58	211,00
514,94	213,00
515,30	216,00
515,66	219,00
516,02	210,00
516,38	214,00
516,74	217,00
517,10	217,00
517,46	215,00
517,82	212,00
518,18	215,00
518,54	216,00
518,90	219,00
519,26	220,00
519,62	219,00
519,98	217,00
520,34	213,00
520,70	212,00
521,06	212,00
521,42	215,00
521,78	215,00
522,14	213,00
522,49	216,00
522,85	214,00
523,21	213,00
523,57	213,00
523,93	209,00
524,29	215,00
524,65	216,00
525,01	216,00
525,37	214,00
525,73	214,00
526,08	210,00
526,44	215,00
526,80	213,00
527,16	216,00
527,52	209,00
527,88	217,00
528,24	214,00
528,60	213,00
528,95	216,00
529,31	208,00
529,67	214,00
530,03	214,00
530,39	217,00
530,75	218,00
531,10	221,00
531,46	215,00
531,82	218,00
532,18	216,00
532,54	215,00
532,89	216,00
533,25	215,00
533,61	213,00
533,97	217,00
534,33	215,00
534,68	217,00
535,04	212,00
535,40	211,00
535,76	212,00
536,12	218,00
536,47	210,00
536,83	214,00
537,19	212,00
537,55	209,00
537,90	214,00
538,26	214,00
538,62	215,00
538,98	211,00
539,33	211,00
539,69	216,00
540,05	217,00
540,40	216,00
540,76	216,00
541,12	218,00
541,48	216,00
541,83	217,00
542,19	213,00
542,55	215,00
542,90	216,00
543,26	216,00
543,62	210,00
543,97	217,00
544,33	220,00
544,69	216,00
545,04	212,00
545,40	216,00
545,76	216,00
546,11	217,00
546,47	216,00
546,83	211,00
547,18	216,00
547,54	213,00
547,89	214,00
548,25	215,00
548,61	216,00
548,96	210,00
549,32	215,00
549,68	216,00
550,03	215,00
550,39	213,00
550,74	214,00
551,10	218,00
551,45	214,00
551,81	219,00
552,17	212,00
552,52	213,00
552,88	208,00
553,23	218,00
553,59	209,00
553,94	212,00
554,30	217,00
554,66	214,00
555,01	217,00
555,37	214,00
555,72	217,00
556,08	218,00
556,43	214,00
556,79	218,00
557,14	214,00
557,50	209,00
557,85	214,00
558,21	217,00
558,56	212,00
558,92	212,00
559,27	215,00
559,63	216,00
559,98	217,00
560,34	214,00
560,69	216,00
561,05	211,00
561,40	215,00
561,76	214,00
562,11	221,00
562,46	209,00
562,82	210,00
563,17	210,00
563,53	213,00
563,88	216,00
564,24	214,00
564,59	213,00
564,95	214,00
565,30	213,00
565,65	211,00
566,01	213,00
566,36	211,00
566,72	210,00
567,07	209,00
567,42	213,00
567,78	215,00
568,13	217,00
568,48	214,00
568,84	217,00
569,19	216,00
569,55	213,00
569,90	211,00
570,25	215,00
570,61	215,00
570,96	216,00
571,31	213,00
571,67	217,00
572,02	215,00
572,37	219,00
572,73	213,00
573,08	211,00
573,43	212,00
573,79	212,00
574,14	220,00
574,49	213,00
574,85	219,00
575,20	211,00
575,55	214,00
575,90	214,00
576,26	218,00
576,61	214,00
576,96	213,00
577,31	215,00
577,67	213,00
578,02	219,00
578,37	216,00
578,73	216,00
579,08	215,00
579,43	215,00
579,78	215,00
580,13	219,00
580,49	218,00
580,84	213,00
581,19	217,00
581,54	215,00
581,90	216,00
582,25	217,00
582,60	212,00
582,95	211,00
583,30	215,00
583,66	216,00
584,01	215,00
584,36	216,00
584,71	219,00
585,06	216,00
585,41	214,00
585,77	218,00
586,12	214,00
586,47	217,00
586,82	215,00
587,17	221,00
587,52	218,00
587,88	219,00
588,23	218,00
588,58	217,00
588,93	221,00
589,28	221,00
589,63	219,00
589,98	219,00
590,33	221,00
590,68	220,00
591,04	219,00
591,39	218,00
591,74	220,00
592,09	221,00
592,44	227,00
592,79	223,00
593,14	226,00
593,49	230,00
593,84	223,00
594,19	228,00
594,54	232,00
594,89	229,00
595,24	237,00
595,59	242,00
595,94	250,00
596,30	256,00
596,65	257,00
597,00	263,00
597,35	285,00
597,70	293,00
598,05	302,00
598,40	326,00
598,75	337,00
599,10	354,00
599,45	373,00
599,80	401,00
600,15	422,00
600,50	452,00
600,85	486,00
601,20	507,00
601,54	551,00
601,89	586,00
602,24	627,00
602,59	671,00
602,94	707,00
603,29	747,00
603,64	782,00
603,99	831,00
604,34	874,00
604,69	918,00
605,04	958,00
605,39	1005,00
605,74	1062,00
606,09	1069,00
606,44	1145,00
606,78	1161,00
607,13	1212,00
607,48	1238,00
607,83	1310,00
608,18	1329,00
608,53	1391,00
608,88	1433,00
609,23	1453,00
609,57	1470,00
609,92	1535,00
610,27	1559,00
610,62	1620,00
610,97	1640,00
611,32	1669,00
611,67	1698,00
612,01	1737,00
612,36	1780,00
612,71	1833,00
613,06	1853,00
613,41	1869,00
613,75	1891,00
614,10	1919,00
614,45	1947,00
614,80	2017,00
615,15	2030,00
615,49	2051,00
615,84	2066,00
616,19	2098,00
616,54	2125,00
616,89	2144,00
617,23	2170,00
617,58	2190,00
617,93	2236,00
618,28	2289,00
618,62	2275,00
618,97	2342,00
619,32	2347,00
619,67	2391,00
620,01	2399,00
620,36	2433,00
620,71	2425,00
621,05	2489,00
621,40	2513,00
621,75	2548,00
622,10	2549,00
622,44	2558,00
622,79	2621,00
623,14	2645,00
623,48	2649,00
623,83	2640,00
624,18	2710,00
624,52	2752,00
624,87	2757,00
625,22	2751,00
625,56	2724,00
625,91	2772,00
626,26	2773,00
626,60	2770,00
626,95	2781,00
627,30	2781,00
627,64	2777,00
627,99	2807,00
628,33	2788,00
628,68	2820,00
629,03	2812,00
629,37	2807,00
629,72	2791,00
630,07	2769,00
630,41	2773,00
630,76	2809,00
631,10	2795,00
631,45	2743,00
631,79	2737,00
632,14	2744,00
632,49	2718,00
632,83	2721,00
633,18	2668,00
633,52	2685,00
633,87	2606,00
634,21	2629,00
634,56	2596,00
634,90	2567,00
635,25	2549,00
635,60	2582,00
635,94	2515,00
636,29	2496,00
636,63	2438,00
636,98	2442,00
637,32	2430,00
637,67	2395,00
638,01	2402,00
638,36	2352,00
638,70	2316,00
639,05	2267,00
639,39	2275,00
639,73	2228,00
640,08	2222,00
640,42	2202,00
640,77	2198,00
641,11	2165,00
641,46	2153,00
641,80	2121,00
642,15	2073,00
642,49	2076,00
642,84	2052,00
643,18	2019,00
643,52	1997,00
643,87	1959,00
644,21	1946,00
644,56	1927,00
644,90	1892,00
645,24	1860,00
645,59	1830,00
645,93	1811,00
646,28	1757,00
646,62	1755,00
646,96	1719,00
647,31	1697,00
647,65	1657,00
647,99	1604,00
648,34	1562,00
648,68	1530,00
649,03	1493,00
649,37	1443,00
649,71	1411,00
650,06	1354,00
650,40	1315,00
650,74	1288,00
651,09	1253,00
651,43	1208,00
651,77	1161,00
652,11	1130,00
652,46	1076,00
652,80	1047,00
653,14	1022,00
653,49	961,00
653,83	925,00
654,17	892,00
654,52	858,00
654,86	807,00
655,20	785,00
655,54	729,00
655,89	699,00
656,23	671,00
656,57	634,00
656,91	605,00
657,26	566,00
657,60	537,00
657,94	526,00
658,28	498,00
658,62	480,00
658,97	446,00
659,31	425,00
659,65	411,00
659,99	389,00
660,33	388,00
660,68	358,00
661,02	342,00
661,36	330,00
661,70	317,00
662,04	313,00
662,39	292,00
662,73	289,00
663,07	276,00
663,41	275,00
663,75	276,00
664,09	257,00
664,44	246,00
664,78	245,00
665,12	244,00
665,46	238,00
665,80	239,00
666,14	235,00
666,48	233,00
666,82	233,00
667,16	229,00
667,51	231,00
667,85	226,00
668,19	223,00
668,53	228,00
668,87	225,00
669,21	223,00
669,55	219,00
669,89	224,00
670,23	224,00
670,57	223,00
670,91	228,00
671,25	218,00
671,59	222,00
671,93	222,00
672,28	225,00
672,62	221,00
672,96	226,00
673,30	229,00
673,64	223,00
673,98	225,00
674,32	219,00
674,66	222,00
675,00	229,00
675,34	227,00
675,68	227,00
676,02	228,00
676,36	226,00
676,70	233,00
677,04	228,00
677,38	241,00
677,71	238,00
678,05	236,00
678,39	246,00
678,73	247,00
679,07	255,00
679,41	252,00
679,75	268,00
680,09	274,00
680,43	280,00
680,77	288,00
681,11	303,00
681,45	314,00
681,79	318,00
682,13	335,00
682,46	346,00
682,80	369,00
683,14	379,00
683,48	396,00
683,82	420,00
684,16	438,00
684,50	454,00
684,84	468,00
685,17	480,00
685,51	499,00
685,85	513,00
686,19	532,00
686,53	552,00
686,87	565,00
687,21	589,00
687,54	597,00
687,88	598,00
688,22	617,00
688,56	630,00
688,90	639,00
689,23	657,00
689,57	670,00
689,91	675,00
690,25	687,00
690,59	684,00
690,92	688,00
691,26	684,00
691,60	694,00
691,94	703,00
692,27	687,00
692,61	696,00
692,95	691,00
693,29	700,00
693,62	698,00
693,96	697,00
694,30	683,00
694,64	691,00
694,97	687,00
695,31	679,00
695,65	672,00
695,98	675,00
696,32	679,00
696,66	659,00
697,00	658,00
697,33	666,00
697,67	652,00
698,01	643,00
698,34	660,00
698,68	644,00
699,02	644,00
699,35	625,00
699,69	628,00
700,03	630,00
700,36	632,00
700,70	621,00
701,04	612,00
701,37	614,00
701,71	619,00
702,04	607,00
702,38	598,00
702,72	602,00
703,05	599,00
703,39	591,00
703,72	597,00
704,06	580,00
704,40	588,00
704,73	583,00
705,07	568,00
705,40	575,00
705,74	575,00
706,08	569,00
706,41	572,00
706,75	560,00
707,08	564,00
707,42	555,00
707,75	568,00
708,09	545,00
708,42	556,00
708,76	549,00
709,09	548,00
709,43	541,00
709,76	535,00
710,10	545,00
710,43	541,00
710,77	531,00
711,10	532,00
711,44	533,00
711,77	534,00
712,11	520,00
712,44	531,00
712,78	522,00
713,11	521,00
713,45	519,00
713,78	519,00
714,12	512,00
714,45	507,00
714,79	507,00
715,12	509,00
715,45	515,00
715,79	506,00
716,12	488,00
716,46	491,00
716,79	491,00
717,13	490,00
717,46	489,00
717,79	493,00
718,13	486,00
718,46	474,00
718,80	481,00
719,13	476,00
719,46	476,00
719,80	471,00
720,13	464,00
720,46	465,00
720,80	465,00
721,13	467,00
721,46	448,00
721,80	460,00
722,13	461,00
722,46	447,00
722,80	442,00
723,13	441,00
723,46	433,00
723,80	429,00
724,13	428,00
724,46	432,00
724,80	433,00
725,13	433,00
725,46	419,00
725,79	418,00
726,13	419,00
726,46	420,00
726,79	406,00
727,13	414,00
727,46	415,00
727,79	412,00
728,12	402,00
728,46	406,00
728,79	399,00
729,12	392,00
729,45	397,00
729,79	391,00
730,12	390,00
730,45	390,00
730,78	389,00
731,11	392,00
731,45	382,00
731,78	374,00
732,11	375,00
732,44	376,00
732,77	382,00
733,11	372,00
733,44	373,00
733,77	367,00
734,10	377,00
734,43	377,00
734,76	359,00
735,09	363,00
735,43	365,00
735,76	359,00
736,09	357,00
736,42	360,00
736,75	351,00
737,08	356,00
737,41	351,00
737,75	351,00
738,08	345,00
738,41	351,00
738,74	348,00
739,07	343,00
739,40	340,00
739,73	348,00
740,06	329,00
740,39	344,00
740,72	326,00
741,05	333,00
741,38	325,00
741,71	336,00
742,04	329,00
742,38	326,00
742,71	322,00
743,04	322,00
743,37	327,00
743,70	330,00
744,03	324,00
744,36	324,00
744,69	320,00
745,02	316,00
745,35	314,00
745,68	308,00
746,01	307,00
746,34	314,00
746,67	311,00
747,00	304,00
747,33	308,00
747,66	308,00
747,99	311,00
748,31	305,00
748,64	299,00
748,97	303,00
749,30	301,00
749,63	301,00
749,96	301,00
750,29	296,00
750,62	296,00
750,95	300,00
751,28	299,00
751,61	296,00
751,94	293,00
752,27	293,00
752,59	291,00
752,92	295,00
753,25	291,00
753,58	287,00
753,91	285,00
754,24	290,00
754,57	284,00
754,90	289,00
755,22	285,00
755,55	278,00
755,88	282,00
756,21	281,00
756,54	285,00
756,87	283,00
757,19	279,00
757,52	285,00
757,85	281,00
758,18	280,00
758,51	280,00
758,83	274,00
759,16	270,00
759,49	272,00
759,82	273,00
760,15	272,00
760,47	268,00
760,80	274,00
761,13	268,00
761,46	269,00
761,78	261,00
762,11	264,00
762,44	265,00
762,77	268,00
763,09	270,00
763,42	267,00
763,75	263,00
764,07	261,00
764,40	260,00
764,73	263,00
765,06	257,00
765,38	261,00
765,71	256,00
766,04	264,00
766,36	256,00
766,69	258,00
767,02	258,00
767,34	257,00
767,67	259,00
768,00	262,00
768,32	260,00
768,65	256,00
768,98	257,00
769,30	259,00
769,63	259,00
769,96	250,00
770,28	253,00
770,61	251,00
770,93	250,00
771,26	253,00
771,59	248,00
771,91	250,00
772,24	251,00
772,56	248,00
772,89	250,00
773,22	252,00
773,54	250,00
773,87	247,00
774,19	244,00
774,52	251,00
774,84	248,00
775,17	249,00
775,50	247,00
775,82	248,00
776,15	246,00
776,47	242,00
776,80	239,00
777,12	248,00
777,45	245,00
777,77	244,00
778,10	240,00
778,42	241,00
778,75	239,00
779,07	250,00
779,40	241,00
779,72	246,00
780,05	244,00
780,37	241,00
780,70	245,00
781,02	241,00
781,34	240,00
781,67	240,00
781,99	239,00
782,32	239,00
782,64	237,00
782,97	237,00
783,29	230,00
783,62	237,00
783,94	244,00
784,26	239,00
784,59	243,00
784,91	236,00
785,24	233,00
785,56	240,00
785,88	238,00
786,21	238,00
786,53	235,00
786,85	235,00
787,18	241,00
787,50	231,00
787,83	235,00
788,15	236,00
788,47	236,00
788,80	232,00
789,12	236,00
789,44	242,00
789,77	229,00
790,09	230,00
790,41	236,00
790,74	232,00
791,06	238,00
791,38	234,00
791,70	234,00
792,03	237,00
792,35	229,00
792,67	229,00
793,00	231,00
793,32	229,00
793,64	233,00
793,96	235,00
794,29	232,00
794,61	231,00
794,93	227,00
795,25	229,00
795,58	231,00
795,90	223,00
796,22	228,00
796,54	229,00
796,86	239,00
797,19	229,00
797,51	230,00
797,83	228,00
798,15	232,00
798,47	230,00
798,80	230,00
799,12	228,00
799,44	227,00
799,76	222,00
800,08	228,00
800,40	229,00
800,73	228,00
801,05	224,00
801,37	230,00
801,69	229,00
802,01	233,00
802,33	226,00
802,65	224,00
802,98	228,00
803,30	227,00
803,62	226,00
803,94	224,00
804,26	226,00
804,58	224,00
804,90	225,00
805,22	223,00
805,54	229,00
805,86	223,00
806,18	225,00
806,51	225,00
806,83	223,00
807,15	228,00
807,47	227,00
807,79	219,00
808,11	232,00
808,43	222,00
808,75	223,00
809,07	226,00
809,39	223,00
809,71	225,00
810,03	220,00
810,35	231,00
810,67	224,00
810,99	219,00
811,31	220,00
811,63	225,00
811,95	219,00
812,27	223,00
812,59	226,00
812,91	222,00
813,23	220,00
813,55	226,00
813,87	223,00
814,18	221,00
814,50	218,00
814,82	222,00
815,14	220,00
815,46	223,00
815,78	222,00
816,10	223,00
816,42	225,00
816,74	216,00
817,06	219,00
817,38	219,00
817,69	217,00
818,01	222,00
818,33	220,00
818,65	221,00
818,97	215,00
819,29	224,00
819,61	217,00
819,93	219,00
820,24	220,00
820,56	215,00
820,88	219,00
821,20	214,00
821,52	221,00
821,83	220,00
822,15	221,00
822,47	221,00
822,79	219,00
823,11	218,00
823,43	217,00
823,74	221,00
824,06	226,00
824,38	216,00
824,70	218,00
825,01	216,00
825,33	222,00
825,65	223,00
825,97	220,00
826,28	224,00
826,60	219,00
826,92	216,00
827,24	210,00
827,55	224,00
827,87	221,00
828,19	216,00
828,50	220,00
828,82	217,00
829,14	219,00
829,46	217,00
829,77	219,00
830,09	217,00
830,41	215,00
830,72	218,00
831,04	214,00
831,36	219,00
831,67	219,00
831,99	218,00
832,31	215,00
832,62	217,00
832,94	216,00
833,25	216,00
833,57	217,00
833,89	218,00
834,20	218,00
834,52	220,00
834,84	212,00
835,15	217,00
835,47	214,00
835,78	217,00
836,10	221,00
836,42	219,00
836,73	216,00
837,05	217,00
837,36	216,00
837,68	217,00
837,99	216,00
838,31	218,00
838,62	217,00
838,94	217,00
839,26	217,00
839,57	220,00
839,89	218,00
840,20	215,00
840,52	216,00
840,83	214,00
841,15	216,00
841,46	217,00
841,78	214,00
842,09	213,00
842,41	214,00
842,72	216,00
843,04	217,00
843,35	208,00
843,66	214,00
843,98	216,00
844,29	215,00
844,61	216,00
844,92	214,00
845,24	221,00
845,55	219,00
845,87	214,00
846,18	217,00
846,49	214,00
846,81	215,00
847,12	217,00
847,44	214,00
847,75	213,00
848,06	215,00
848,38	220,00
848,69	213,00
849,00	216,00
849,32	218,00
849,63	217,00
849,95	209,00
850,26	211,00
850,57	217,00
850,89	216,00
851,20	212,00
851,51	216,00
851,83	214,00
852,14	215,00
852,45	211,00
852,77	214,00
853,08	217,00
853,39	213,00
853,70	213,00
854,02	211,00
854,33	214,00
854,64	219,00
854,96	214,00
855,27	214,00
855,58	212,00
855,89	215,00
856,21	212,00
856,52	216,00
856,83	214,00
857,14	218,00
857,46	215,00
857,77	214,00
858,08	219,00
858,39	213,00
858,70	209,00
859,02	210,00
859,33	216,00
859,64	218,00
859,95	211,00
860,26	212,00
860,58	216,00
860,89	212,00
861,20	216,00
861,51	215,00
861,82	218,00
862,13	216,00
862,45	215,00
862,76	215,00
863,07	215,00
863,38	214,00
863,69	214,00
864,00	214,00
864,31	214,00
864,62	211,00
864,93	213,00
865,25	210,00
865,56	215,00
865,87	209,00
866,18	216,00
866,49	212,00
866,80	215,00
867,11	214,00
867,42	210,00
867,73	214,00
868,04	218,00
868,35	216,00
868,66	212,00
868,97	214,00
869,28	215,00
869,59	212,00
869,90	212,00
870,21	211,00
870,52	213,00
870,83	211,00
871,14	217,00
871,45	214,00
871,76	212,00
872,07	212,00
872,38	217,00
872,69	219,00
873,00	213,00
873,31	212,00
873,62	213,00
873,93	214,00
874,24	213,00
874,55	213,00
874,86	211,00
875,17	213,00
875,48	212,00
875,79	211,00
876,10	215,00
876,41	214,00
876,72	213,00
877,02	213,00
877,33	212,00
877,64	218,00
877,95	214,00
878,26	214,00
878,57	212,00
878,88	211,00
879,19	210,00
879,49	208,00
879,80	213,00
880,11	216,00
880,42	213,00
880,73	216,00
881,04	212,00
881,34	215,00
881,65	214,00
881,96	214,00
882,27	215,00
882,58	212,00
882,88	213,00
883,19	212,00
883,50	211,00
883,81	214,00
884,12	214,00
884,42	217,00
884,73	213,00
885,04	212,00
885,35	214,00
885,65	214,00
885,96	217,00
886,27	209,00
886,58	212,00
886,88	212,00
887,19	213,00
887,50	214,00
887,80	213,00
888,11	215,00
888,42	217,00
888,73	215,00
889,03	218,00
889,34	215,00
889,65	215,00
889,95	213,00
890,26	220,00
890,57	215,00
890,87	210,00
891,18	216,00
891,49	216,00
891,79	215,00
892,10	211,00
892,41	214,00
892,71	215,00
893,02	210,00
893,32	217,00
893,63	212,00
893,94	213,00
894,24	215,00
894,55	213,00
894,85	209,00
895,16	211,00
895,47	215,00
895,77	214,00
896,08	212,00
896,38	217,00
896,69	211,00
896,99	214,00
897,30	212,00
897,60	213,00
897,91	215,00
898,21	211,00
898,52	216,00
898,83	215,00
899,13	214,00
899,44	217,00
899,74	211,00
900,05	215,00
900,35	213,00
900,65	213,00
900,96	212,00
901,26	217,00
901,57	213,00
901,87	213,00
902,18	212,00
902,48	212,00
902,79	211,00
903,09	214,00
903,40	212,00
903,70	212,00
904,00	214,00
904,31	211,00
904,61	211,00
904,92	215,00
905,22	216,00
905,53	214,00
905,83	213,00
906,13	213,00
906,44	212,00
906,74	215,00
907,04	215,00
907,35	216,00
907,65	216,00
907,96	213,00
908,26	215,00
908,56	215,00
908,87	210,00
909,17	207,00
909,47	211,00
909,78	211,00
910,08	208,00
910,38	215,00
910,68	215,00
910,99	208,00
911,29	214,00
911,59	210,00
911,90	216,00
912,20	212,00
912,50	213,00
912,80	212,00
913,11	210,00
913,41	214,00
913,71	214,00
914,01	212,00
914,32	216,00
914,62	206,00
914,92	213,00
915,22	207,00
915,53	211,00
915,83	215,00
916,13	212,00
916,43	216,00
916,73	213,00
917,04	214,00
917,34	213,00
917,64	211,00
917,94	213,00
918,24	211,00
918,55	210,00
918,85	206,00
919,15	208,00
919,45	212,00
919,75	214,00
920,05	215,00
920,35	212,00
920,66	215,00
920,96	210,00
921,26	215,00
921,56	215,00
921,86	216,00
922,16	210,00
922,46	214,00
922,76	216,00
923,06	216,00
923,36	212,00
923,66	210,00
923,97	215,00
924,27	214,00
924,57	210,00
924,87	208,00
925,17	213,00
925,47	210,00
925,77	212,00
926,07	217,00
926,37	214,00
926,67	214,00
926,97	214,00
927,27	212,00
927,57	216,00
927,87	217,00
928,17	209,00
928,47	215,00
928,77	217,00
929,07	216,00
929,37	213,00
929,67	206,00
929,97	211,00
930,27	214,00
930,57	215,00
930,87	212,00
931,16	213,00
931,46	210,00
931,76	208,00
932,06	213,00
932,36	215,00
932,66	214,00
932,96	213,00
933,26	213,00
933,56	216,00
933,86	216,00
934,16	211,00
934,45	215,00
934,75	213,00
935,05	214,00
935,35	215,00
935,65	214,00
935,95	212,00
936,24	217,00
936,54	215,00
936,84	215,00
937,14	219,00
937,44	214,00
937,74	210,00
938,03	205,00
938,33	213,00
938,63	210,00
938,93	213,00
939,23	212,00
939,52	212,00
939,82	213,00
940,12	210,00
940,42	217,00
940,71	215,00
941,01	221,00
941,31	213,00
941,61	216,00
941,90	213,00
942,20	208,00
942,50	214,00
942,80	214,00
943,09	209,00
943,39	212,00
943,69	212,00
943,98	216,00
944,28	215,00
944,58	210,00
944,87	211,00
945,17	214,00
945,47	213,00
945,76	215,00
946,06	212,00
946,36	210,00
946,65	214,00
946,95	212,00
947,25	215,00
947,54	214,00
947,84	211,00
948,14	212,00
948,43	212,00
948,73	217,00
949,02	215,00
949,32	215,00
949,62	214,00
949,91	212,00
950,21	211,00
950,50	215,00
950,80	211,00
951,09	209,00
951,39	213,00
951,69	214,00
951,98	212,00
952,28	208,00
952,57	216,00
952,87	212,00
953,16	214,00
953,46	215,00
953,75	212,00
954,05	214,00
954,34	214,00
954,64	218,00
954,93	212,00
955,23	211,00
955,52	213,00
955,82	213,00
956,11	217,00
956,41	217,00
956,70	210,00
957,00	213,00
957,29	207,00
957,58	214,00
957,88	215,00
958,17	210,00
958,47	214,00
958,76	212,00
959,06	211,00
959,35	219,00
959,64	215,00
959,94	215,00
960,23	212,00
960,52	218,00
960,82	214,00
961,11	213,00
961,41	213,00
961,70	216,00
961,99	211,00
962,29	215,00
962,58	216,00
962,87	209,00
963,17	209,00
963,46	216,00
963,75	209,00
964,05	210,00
964,34	208,00
964,63	210,00
964,93	212,00
965,22	214,00
965,51	215,00
965,80	212,00
966,10	209,00
966,39	215,00
966,68	212,00
966,97	213,00
967,27	213,00
967,56	214,00
967,85	210,00
968,14	215,00
968,44	214,00
968,73	210,00
969,02	212,00
969,31	212,00
969,61	215,00
969,90	212,00
970,19	214,00
970,48	206,00
970,77	216,00
971,07	214,00
971,36	216,00
971,65	214,00
971,94	212,00
972,23	210,00
972,52	215,00
972,81	213,00
973,11	211,00
973,40	211,00
973,69	211,00
973,98	211,00
974,27	214,00
974,56	214,00
974,85	210,00
975,14	218,00
975,44	212,00
975,73	215,00
976,02	213,00
976,31	213,00
976,60	215,00
976,89	211,00
977,18	218,00
977,47	211,00
977,76	212,00
978,05	212,00
978,34	211,00
978,63	214,00
978,92	210,00
979,21	210,00
979,50	207,00
979,79	215,00
980,08	212,00
980,37	209,00
980,66	215,00
980,95	211,00
981,24	217,00
981,53	211,00
981,82	214,00
982,11	213,00
982,40	213,00
982,69	214,00
982,98	208,00
983,27	214,00
983,56	210,00
983,85	213,00
984,14	214,00
984,43	212,00
984,72	215,00
985,01	211,00
985,29	211,00
985,58	212,00
985,87	216,00
986,16	215,00
986,45	212,00
986,74	213,00
987,03	210,00
987,32	210,00
987,60	214,00
987,89	212,00
988,18	210,00
988,47	208,00
988,76	212,00
989,05	209,00
989,33	214,00
989,62	216,00
989,91	210,00
990,20	212,00
990,49	215,00
990,77	212,00
991,06	215,00
991,35	216,00
991,64	207,00
991,93	214,00
992,21	211,00
992,50	211,00
992,79	209,00
993,08	211,00
993,36	210,00
993,65	210,00
993,94	211,00
994,23	213,00
994,51	212,00
994,80	208,00
995,09	208,00
995,37	212,00
995,66	213,00
995,95	217,00
996,23	210,00
996,52	210,00
996,81	211,00
997,09	210,00
997,38	210,00
997,67	214,00
997,95	210,00
998,24	212,00
998,53	214,00
998,81	213,00
999,10	212,00
999,39	214,00
999,67	212,00
999,96	210,00
1000,24	215,00
1000,53	209,00
1000,82	214,00
1001,10	206,00
1001,39	214,00
1001,67	208,00
1001,96	211,00
1002,25	213,00
1002,53	210,00
1002,82	212,00
1003,10	213,00
1003,39	212,00
1003,67	218,00
1003,96	210,00
1004,24	212,00
1004,53	211,00
1004,81	211,00
1005,10	212,00
1005,38	213,00
1005,67	211,00
1005,95	211,00
1006,24	213,00
1006,52	212,00
1006,81	214,00
1007,09	213,00
1007,38	210,00
1007,66	209,00
1007,95	214,00
1008,23	213,00
1008,51	211,00
1008,80	211,00
1009,08	216,00
1009,37	215,00
1009,65	216,00
1009,94	214,00
1010,22	217,00
1010,50	214,00
1010,79	217,00
1011,07	216,00
1011,36	213,00
1011,64	215,00
1011,92	217,00
1012,21	211,00
1012,49	211,00
1012,77	212,00
1013,06	213,00
1013,34	213,00
1013,62	212,00
1013,91	211,00
1014,19	214,00
1014,47	210,00
1014,76	218,00
1015,04	208,00
1015,32	211,00
1015,60	208,00
1015,89	212,00
1016,17	216,00
1016,45	211,00
1016,74	211,00
1017,02	213,00
1017,30	213,00
1017,58	216,00
1017,87	215,00
1018,15	211,00
1018,43	214,00
1018,71	214,00
1019,00	209,00
1019,28	210,00
1019,56	216,00
1019,84	214,00
1020,12	212,00
1020,41	208,00
1020,69	214,00
1020,97	207,00
1021,25	211,00
1021,53	209,00
1021,81	213,00
1022,10	210,00
1022,38	206,00
1022,66	210,00
1022,94	209,00
>>>>>End Processed Spectral Data<<<<<
