SpectraSuite Data File
++++++++++++++++++++++++++++++++++++
Date: Wed Mar 11 16:43:07 CET 2026
User: User
Dark Spectrum Present: No
Reference Spectrum Present: No
Number of Sampled Component Spectra: 1
Spectrometers: USB2G10323
Integration Time (usec): 200000 (USB2G10323)
Spectra Averaged: 1 (USB2G10323)
Boxcar Smoothing: 0 (USB2G10323)
Correct for Electrical Dark: No (USB2G10323)
Strobe/Lamp Enabled: No (USB2G10323)
Correct for Detector Non-linearity: No (USB2G10323)
Correct for Stray Light: No (USB2G10323)
Number of Pixels in Processed Spectrum: 2048
>>>>>Begin Processed Spectral Data<<<<<
339,75	0,00
340,13	210,00
340,51	209,00
340,89	216,00
341,27	211,00
341,65	217,00
342,03	218,00
342,40	212,00
342,78	216,00
343,16	212,00
343,54	220,00
343,92	218,00
344,30	220,00
344,67	212,00
345,05	223,00
345,43	217,00
345,81	220,00
346,19	218,00
346,56	218,00
346,94	217,00
347,32	216,00
347,70	222,00
348,08	219,00
348,45	218,00
348,83	216,00
349,21	217,00
349,59	213,00
349,96	216,00
350,34	222,00
350,72	221,00
351,10	219,00
351,48	218,00
351,85	217,00
352,23	223,00
352,61	220,00
352,98	217,00
353,36	216,00
353,74	219,00
354,12	221,00
354,49	222,00
354,87	219,00
355,25	218,00
355,63	217,00
356,00	223,00
356,38	216,00
356,76	254,00
357,13	220,00
357,51	224,00
357,89	218,00
358,26	219,00
358,64	218,00
359,02	218,00
359,40	216,00
359,77	219,00
360,15	216,00
360,53	219,00
360,90	221,00
361,28	224,00
361,65	222,00
362,03	217,00
362,41	228,00
362,78	218,00
363,16	219,00
363,54	220,00
363,91	218,00
364,29	221,00
364,67	223,00
365,04	217,00
365,42	217,00
365,79	220,00
366,17	222,00
366,55	224,00
366,92	218,00
367,30	224,00
367,67	224,00
368,05	219,00
368,43	216,00
368,80	217,00
369,18	220,00
369,55	219,00
369,93	218,00
370,31	215,00
370,68	218,00
371,06	218,00
371,43	217,00
371,81	218,00
372,18	219,00
372,56	216,00
372,93	220,00
373,31	218,00
373,68	220,00
374,06	219,00
374,44	219,00
374,81	221,00
375,19	216,00
375,56	217,00
375,94	219,00
376,31	220,00
376,69	220,00
377,06	219,00
377,44	217,00
377,81	220,00
378,19	218,00
378,56	221,00
378,94	221,00
379,31	218,00
379,68	218,00
380,06	222,00
380,43	223,00
380,81	213,00
381,18	219,00
381,56	218,00
381,93	217,00
382,31	225,00
382,68	227,00
383,06	223,00
383,43	223,00
383,80	219,00
384,18	219,00
384,55	221,00
384,93	216,00
385,30	219,00
385,68	223,00
386,05	217,00
386,42	219,00
386,80	216,00
387,17	221,00
387,55	218,00
387,92	220,00
388,29	222,00
388,67	224,00
389,04	218,00
389,42	219,00
389,79	219,00
390,16	220,00
390,54	219,00
390,91	215,00
391,28	222,00
391,66	218,00
392,03	219,00
392,40	218,00
392,78	217,00
393,15	221,00
393,52	222,00
393,90	221,00
394,27	219,00
394,64	226,00
395,02	216,00
395,39	215,00
395,76	224,00
396,14	217,00
396,51	220,00
396,88	215,00
397,26	223,00
397,63	222,00
398,00	222,00
398,37	220,00
398,75	216,00
399,12	214,00
399,49	219,00
399,86	219,00
400,24	219,00
400,61	217,00
400,98	217,00
401,36	217,00
401,73	214,00
402,10	222,00
402,47	217,00
402,85	218,00
403,22	219,00
403,59	218,00
403,96	216,00
404,33	215,00
404,71	220,00
405,08	218,00
405,45	217,00
405,82	218,00
406,19	226,00
406,57	217,00
406,94	218,00
407,31	224,00
407,68	215,00
408,05	221,00
408,43	225,00
408,80	218,00
409,17	217,00
409,54	212,00
409,91	218,00
410,28	219,00
410,66	222,00
411,03	218,00
411,40	218,00
411,77	217,00
412,14	219,00
412,51	223,00
412,88	222,00
413,26	219,00
413,63	221,00
414,00	217,00
414,37	215,00
414,74	214,00
415,11	218,00
415,48	219,00
415,85	226,00
416,23	217,00
416,60	217,00
416,97	220,00
417,34	219,00
417,71	212,00
418,08	224,00
418,45	219,00
418,82	216,00
419,19	219,00
419,56	220,00
419,93	224,00
420,30	232,00
420,67	219,00
421,04	218,00
421,42	218,00
421,79	217,00
422,16	218,00
422,53	216,00
422,90	220,00
423,27	221,00
423,64	217,00
424,01	220,00
424,38	217,00
424,75	218,00
425,12	213,00
425,49	215,00
425,86	217,00
426,23	223,00
426,60	217,00
426,97	221,00
427,34	218,00
427,71	219,00
428,08	220,00
428,45	216,00
428,82	221,00
429,19	223,00
429,56	221,00
429,92	217,00
430,29	220,00
430,66	216,00
431,03	217,00
431,40	219,00
431,77	217,00
432,14	220,00
432,51	215,00
432,88	226,00
433,25	219,00
433,62	220,00
433,99	217,00
434,36	220,00
434,73	235,00
435,09	225,00
435,46	217,00
435,83	221,00
436,20	221,00
436,57	218,00
436,94	222,00
437,31	216,00
437,68	217,00
438,05	217,00
438,41	217,00
438,78	217,00
439,15	222,00
439,52	218,00
439,89	216,00
440,26	216,00
440,62	217,00
440,99	222,00
441,36	216,00
441,73	222,00
442,10	221,00
442,47	221,00
442,83	222,00
443,20	220,00
443,57	215,00
443,94	218,00
444,31	216,00
444,67	219,00
445,04	227,00
445,41	217,00
445,78	216,00
446,15	220,00
446,51	217,00
446,88	223,00
447,25	226,00
447,62	217,00
447,98	217,00
448,35	216,00
448,72	222,00
449,09	220,00
449,46	218,00
449,82	226,00
450,19	217,00
450,56	223,00
450,92	219,00
451,29	220,00
451,66	221,00
452,03	218,00
452,39	222,00
452,76	221,00
453,13	218,00
453,49	216,00
453,86	222,00
454,23	221,00
454,60	221,00
454,96	215,00
455,33	222,00
455,70	220,00
456,06	220,00
456,43	226,00
456,80	218,00
457,16	221,00
457,53	217,00
457,90	220,00
458,26	222,00
458,63	218,00
459,00	223,00
459,36	223,00
459,73	222,00
460,09	216,00
460,46	220,00
460,83	216,00
461,19	221,00
461,56	220,00
461,93	220,00
462,29	214,00
462,66	219,00
463,02	219,00
463,39	219,00
463,76	218,00
464,12	221,00
464,49	218,00
464,85	216,00
465,22	216,00
465,58	217,00
465,95	216,00
466,32	218,00
466,68	219,00
467,05	220,00
467,41	219,00
467,78	216,00
468,14	219,00
468,51	214,00
468,87	220,00
469,24	216,00
469,60	220,00
469,97	219,00
470,33	217,00
470,70	225,00
471,06	221,00
471,43	219,00
471,79	216,00
472,16	217,00
472,52	221,00
472,89	225,00
473,25	224,00
473,62	221,00
473,98	222,00
474,35	217,00
474,71	221,00
475,08	221,00
475,44	222,00
475,81	219,00
476,17	219,00
476,54	215,00
476,90	220,00
477,27	216,00
477,63	225,00
477,99	217,00
478,36	223,00
478,72	223,00
479,09	219,00
479,45	220,00
479,82	219,00
480,18	217,00
480,54	220,00
480,91	221,00
481,27	221,00
481,64	224,00
482,00	224,00
482,36	218,00
482,73	219,00
483,09	218,00
483,45	218,00
483,82	216,00
484,18	218,00
484,55	222,00
484,91	217,00
485,27	215,00
485,64	219,00
486,00	221,00
486,36	219,00
486,73	219,00
487,09	216,00
487,45	219,00
487,82	223,00
488,18	216,00
488,54	226,00
488,91	215,00
489,27	222,00
489,63	214,00
489,99	221,00
490,36	215,00
490,72	218,00
491,08	219,00
491,45	223,00
491,81	216,00
492,17	220,00
492,53	221,00
492,90	219,00
493,26	219,00
493,62	215,00
493,98	220,00
494,35	218,00
494,71	216,00
495,07	221,00
495,43	217,00
495,80	218,00
496,16	221,00
496,52	216,00
496,88	219,00
497,25	217,00
497,61	215,00
497,97	223,00
498,33	217,00
498,69	214,00
499,06	216,00
499,42	219,00
499,78	222,00
500,14	220,00
500,50	214,00
500,86	221,00
501,23	220,00
501,59	218,00
501,95	218,00
502,31	225,00
502,67	222,00
503,03	219,00
503,40	220,00
503,76	222,00
504,12	222,00
504,48	222,00
504,84	222,00
505,20	220,00
505,56	221,00
505,93	217,00
506,29	222,00
506,65	223,00
507,01	221,00
507,37	215,00
507,73	217,00
508,09	222,00
508,45	221,00
508,81	220,00
509,17	220,00
509,53	220,00
509,90	216,00
510,26	221,00
510,62	220,00
510,98	223,00
511,34	222,00
511,70	223,00
512,06	224,00
512,42	220,00
512,78	221,00
513,14	221,00
513,50	224,00
513,86	218,00
514,22	222,00
514,58	220,00
514,94	223,00
515,30	225,00
515,66	219,00
516,02	224,00
516,38	221,00
516,74	221,00
517,10	216,00
517,46	225,00
517,82	222,00
518,18	228,00
518,54	223,00
518,90	227,00
519,26	223,00
519,62	226,00
519,98	225,00
520,34	227,00
520,70	225,00
521,06	224,00
521,42	225,00
521,78	226,00
522,14	225,00
522,49	221,00
522,85	223,00
523,21	223,00
523,57	221,00
523,93	224,00
524,29	224,00
524,65	220,00
525,01	221,00
525,37	225,00
525,73	229,00
526,08	220,00
526,44	221,00
526,80	223,00
527,16	225,00
527,52	224,00
527,88	234,00
528,24	225,00
528,60	223,00
528,95	223,00
529,31	227,00
529,67	224,00
530,03	223,00
530,39	224,00
530,75	226,00
531,10	226,00
531,46	223,00
531,82	226,00
532,18	220,00
532,54	225,00
532,89	221,00
533,25	223,00
533,61	221,00
533,97	221,00
534,33	222,00
534,68	223,00
535,04	223,00
535,40	222,00
535,76	223,00
536,12	220,00
536,47	223,00
536,83	218,00
537,19	221,00
537,55	223,00
537,90	223,00
538,26	223,00
538,62	224,00
538,98	221,00
539,33	220,00
539,69	223,00
540,05	225,00
540,40	222,00
540,76	220,00
541,12	219,00
541,48	223,00
541,83	224,00
542,19	229,00
542,55	223,00
542,90	221,00
543,26	218,00
543,62	224,00
543,97	224,00
544,33	222,00
544,69	222,00
545,04	225,00
545,40	225,00
545,76	224,00
546,11	228,00
546,47	221,00
546,83	220,00
547,18	219,00
547,54	224,00
547,89	225,00
548,25	222,00
548,61	223,00
548,96	220,00
549,32	222,00
549,68	221,00
550,03	226,00
550,39	224,00
550,74	219,00
551,10	216,00
551,45	220,00
551,81	225,00
552,17	218,00
552,52	219,00
552,88	220,00
553,23	226,00
553,59	222,00
553,94	215,00
554,30	224,00
554,66	224,00
555,01	223,00
555,37	220,00
555,72	220,00
556,08	220,00
556,43	217,00
556,79	220,00
557,14	224,00
557,50	224,00
557,85	219,00
558,21	223,00
558,56	217,00
558,92	223,00
559,27	219,00
559,63	219,00
559,98	219,00
560,34	219,00
560,69	221,00
561,05	220,00
561,40	220,00
561,76	221,00
562,11	224,00
562,46	218,00
562,82	223,00
563,17	222,00
563,53	225,00
563,88	219,00
564,24	223,00
564,59	223,00
564,95	218,00
565,30	224,00
565,65	223,00
566,01	221,00
566,36	222,00
566,72	225,00
567,07	224,00
567,42	230,00
567,78	227,00
568,13	226,00
568,48	229,00
568,84	230,00
569,19	230,00
569,55	230,00
569,90	231,00
570,25	230,00
570,61	239,00
570,96	236,00
571,31	240,00
571,67	235,00
572,02	240,00
572,37	243,00
572,73	243,00
573,08	251,00
573,43	248,00
573,79	257,00
574,14	258,00
574,49	265,00
574,85	262,00
575,20	268,00
575,55	262,00
575,90	270,00
576,26	278,00
576,61	282,00
576,96	280,00
577,31	286,00
577,67	293,00
578,02	295,00
578,37	297,00
578,73	307,00
579,08	315,00
579,43	309,00
579,78	319,00
580,13	332,00
580,49	332,00
580,84	342,00
581,19	347,00
581,54	354,00
581,90	365,00
582,25	380,00
582,60	381,00
582,95	390,00
583,30	395,00
583,66	409,00
584,01	421,00
584,36	415,00
584,71	430,00
585,06	449,00
585,41	435,00
585,77	453,00
586,12	461,00
586,47	473,00
586,82	468,00
587,17	484,00
587,52	488,00
587,88	489,00
588,23	507,00
588,58	495,00
588,93	519,00
589,28	527,00
589,63	529,00
589,98	539,00
590,33	540,00
590,68	551,00
591,04	550,00
591,39	559,00
591,74	576,00
592,09	579,00
592,44	577,00
592,79	573,00
593,14	575,00
593,49	588,00
593,84	583,00
594,19	594,00
594,54	584,00
594,89	582,00
595,24	581,00
595,59	592,00
595,94	590,00
596,30	590,00
596,65	595,00
597,00	602,00
597,35	579,00
597,70	595,00
598,05	582,00
598,40	584,00
598,75	571,00
599,10	558,00
599,45	572,00
599,80	558,00
600,15	553,00
600,50	551,00
600,85	534,00
601,20	532,00
601,54	535,00
601,89	529,00
602,24	521,00
602,59	505,00
602,94	508,00
603,29	518,00
603,64	499,00
603,99	487,00
604,34	491,00
604,69	478,00
605,04	475,00
605,39	463,00
605,74	459,00
606,09	451,00
606,44	448,00
606,78	433,00
607,13	433,00
607,48	428,00
607,83	425,00
608,18	418,00
608,53	411,00
608,88	420,00
609,23	406,00
609,57	405,00
609,92	398,00
610,27	397,00
610,62	387,00
610,97	387,00
611,32	394,00
611,67	390,00
612,01	381,00
612,36	379,00
612,71	374,00
613,06	370,00
613,41	374,00
613,75	368,00
614,10	366,00
614,45	367,00
614,80	373,00
615,15	366,00
615,49	367,00
615,84	355,00
616,19	356,00
616,54	349,00
616,89	352,00
617,23	348,00
617,58	348,00
617,93	344,00
618,28	347,00
618,62	347,00
618,97	349,00
619,32	346,00
619,67	347,00
620,01	343,00
620,36	340,00
620,71	343,00
621,05	333,00
621,40	340,00
621,75	337,00
622,10	336,00
622,44	336,00
622,79	365,00
623,14	343,00
623,48	336,00
623,83	331,00
624,18	328,00
624,52	327,00
624,87	326,00
625,22	332,00
625,56	326,00
625,91	327,00
626,26	323,00
626,60	319,00
626,95	321,00
627,30	317,00
627,64	321,00
627,99	326,00
628,33	303,00
628,68	313,00
629,03	310,00
629,37	319,00
629,72	314,00
630,07	308,00
630,41	309,00
630,76	305,00
631,10	304,00
631,45	300,00
631,79	312,00
632,14	305,00
632,49	306,00
632,83	300,00
633,18	297,00
633,52	290,00
633,87	290,00
634,21	302,00
634,56	299,00
634,90	284,00
635,25	285,00
635,60	288,00
635,94	290,00
636,29	286,00
636,63	286,00
636,98	284,00
637,32	283,00
637,67	278,00
638,01	284,00
638,36	277,00
638,70	282,00
639,05	278,00
639,39	273,00
639,73	273,00
640,08	273,00
640,42	272,00
640,77	267,00
641,11	269,00
641,46	268,00
641,80	274,00
642,15	265,00
642,49	268,00
642,84	264,00
643,18	264,00
643,52	267,00
643,87	266,00
644,21	267,00
644,56	261,00
644,90	263,00
645,24	262,00
645,59	259,00
645,93	259,00
646,28	257,00
646,62	257,00
646,96	254,00
647,31	269,00
647,65	258,00
647,99	257,00
648,34	254,00
648,68	256,00
649,03	257,00
649,37	251,00
649,71	257,00
650,06	253,00
650,40	249,00
650,74	251,00
651,09	250,00
651,43	248,00
651,77	254,00
652,11	249,00
652,46	242,00
652,80	248,00
653,14	243,00
653,49	244,00
653,83	240,00
654,17	244,00
654,52	235,00
654,86	234,00
655,20	241,00
655,54	237,00
655,89	237,00
656,23	241,00
656,57	238,00
656,91	232,00
657,26	232,00
657,60	225,00
657,94	222,00
658,28	232,00
658,62	233,00
658,97	224,00
659,31	224,00
659,65	227,00
659,99	220,00
660,33	226,00
660,68	225,00
661,02	225,00
661,36	230,00
661,70	224,00
662,04	225,00
662,39	218,00
662,73	221,00
663,07	224,00
663,41	219,00
663,75	324,00
664,09	224,00
664,44	222,00
664,78	226,00
665,12	219,00
665,46	221,00
665,80	223,00
666,14	221,00
666,48	222,00
666,82	218,00
667,16	220,00
667,51	217,00
667,85	225,00
668,19	223,00
668,53	221,00
668,87	222,00
669,21	219,00
669,55	219,00
669,89	222,00
670,23	219,00
670,57	221,00
670,91	217,00
671,25	217,00
671,59	215,00
671,93	219,00
672,28	222,00
672,62	221,00
672,96	220,00
673,30	218,00
673,64	222,00
673,98	224,00
674,32	221,00
674,66	218,00
675,00	226,00
675,34	219,00
675,68	222,00
676,02	222,00
676,36	218,00
676,70	219,00
677,04	221,00
677,38	216,00
677,71	218,00
678,05	225,00
678,39	223,00
678,73	219,00
679,07	223,00
679,41	222,00
679,75	225,00
680,09	228,00
680,43	229,00
680,77	222,00
681,11	228,00
681,45	226,00
681,79	224,00
682,13	228,00
682,46	232,00
682,80	234,00
683,14	237,00
683,48	237,00
683,82	235,00
684,16	242,00
684,50	243,00
684,84	238,00
685,17	237,00
685,51	244,00
685,85	248,00
686,19	248,00
686,53	251,00
686,87	250,00
687,21	249,00
687,54	247,00
687,88	254,00
688,22	254,00
688,56	254,00
688,90	254,00
689,23	260,00
689,57	262,00
689,91	263,00
690,25	264,00
690,59	264,00
690,92	263,00
691,26	268,00
691,60	259,00
691,94	266,00
692,27	257,00
692,61	269,00
692,95	263,00
693,29	265,00
693,62	262,00
693,96	268,00
694,30	263,00
694,64	262,00
694,97	265,00
695,31	262,00
695,65	266,00
695,98	261,00
696,32	264,00
696,66	268,00
697,00	265,00
697,33	264,00
697,67	268,00
698,01	265,00
698,34	266,00
698,68	264,00
699,02	258,00
699,35	265,00
699,69	264,00
700,03	269,00
700,36	266,00
700,70	260,00
701,04	259,00
701,37	259,00
701,71	264,00
702,04	263,00
702,38	261,00
702,72	267,00
703,05	263,00
703,39	259,00
703,72	265,00
704,06	262,00
704,40	267,00
704,73	267,00
705,07	269,00
705,40	275,00
705,74	276,00
706,08	268,00
706,41	266,00
706,75	271,00
707,08	275,00
707,42	273,00
707,75	272,00
708,09	270,00
708,42	271,00
708,76	272,00
709,09	276,00
709,43	286,00
709,76	278,00
710,10	283,00
710,43	270,00
710,77	281,00
711,10	281,00
711,44	280,00
711,77	285,00
712,11	278,00
712,44	283,00
712,78	286,00
713,11	284,00
713,45	282,00
713,78	291,00
714,12	289,00
714,45	288,00
714,79	290,00
715,12	296,00
715,45	302,00
715,79	295,00
716,12	299,00
716,46	296,00
716,79	293,00
717,13	297,00
717,46	306,00
717,79	304,00
718,13	305,00
718,46	304,00
718,80	308,00
719,13	307,00
719,46	304,00
719,80	318,00
720,13	316,00
720,46	320,00
720,80	319,00
721,13	324,00
721,46	337,00
721,80	327,00
722,13	336,00
722,46	335,00
722,80	333,00
723,13	347,00
723,46	341,00
723,80	349,00
724,13	342,00
724,46	348,00
724,80	349,00
725,13	352,00
725,46	353,00
725,79	361,00
726,13	371,00
726,46	366,00
726,79	374,00
727,13	378,00
727,46	378,00
727,79	383,00
728,12	386,00
728,46	395,00
728,79	399,00
729,12	404,00
729,45	405,00
729,79	408,00
730,12	410,00
730,45	423,00
730,78	425,00
731,11	429,00
731,45	432,00
731,78	438,00
732,11	441,00
732,44	458,00
732,77	464,00
733,11	462,00
733,44	466,00
733,77	459,00
734,10	478,00
734,43	487,00
734,76	498,00
735,09	497,00
735,43	508,00
735,76	509,00
736,09	513,00
736,42	523,00
736,75	530,00
737,08	542,00
737,41	545,00
737,75	544,00
738,08	554,00
738,41	561,00
738,74	586,00
739,07	589,00
739,40	594,00
739,73	601,00
740,06	606,00
740,39	613,00
740,72	627,00
741,05	628,00
741,38	645,00
741,71	649,00
742,04	663,00
742,38	678,00
742,71	680,00
743,04	685,00
743,37	692,00
743,70	702,00
744,03	696,00
744,36	733,00
744,69	724,00
745,02	744,00
745,35	744,00
745,68	739,00
746,01	767,00
746,34	759,00
746,67	775,00
747,00	801,00
747,33	807,00
747,66	801,00
747,99	818,00
748,31	820,00
748,64	834,00
748,97	830,00
749,30	844,00
749,63	844,00
749,96	858,00
750,29	864,00
750,62	874,00
750,95	878,00
751,28	902,00
751,61	909,00
751,94	908,00
752,27	911,00
752,59	928,00
752,92	915,00
753,25	940,00
753,58	953,00
753,91	940,00
754,24	961,00
754,57	969,00
754,90	979,00
755,22	988,00
755,55	983,00
755,88	996,00
756,21	1008,00
756,54	1011,00
756,87	1009,00
757,19	1018,00
757,52	1010,00
757,85	1010,00
758,18	1009,00
758,51	1020,00
758,83	1025,00
759,16	1042,00
759,49	1041,00
759,82	1029,00
760,15	1041,00
760,47	1038,00
760,80	1040,00
761,13	1054,00
761,46	1047,00
761,78	1053,00
762,11	1067,00
762,44	1061,00
762,77	1057,00
763,09	1069,00
763,42	1061,00
763,75	1067,00
764,07	1061,00
764,40	1075,00
764,73	1092,00
765,06	1058,00
765,38	1060,00
765,71	1078,00
766,04	1064,00
766,36	1083,00
766,69	1079,00
767,02	1066,00
767,34	1070,00
767,67	1072,00
768,00	1086,00
768,32	1072,00
768,65	1088,00
768,98	1066,00
769,30	1092,00
769,63	1083,00
769,96	1085,00
770,28	1083,00
770,61	1083,00
770,93	1082,00
771,26	1064,00
771,59	1062,00
771,91	1078,00
772,24	1081,00
772,56	1079,00
772,89	1070,00
773,22	1072,00
773,54	1073,00
773,87	1066,00
774,19	1063,00
774,52	1052,00
774,84	1050,00
775,17	1038,00
775,50	1032,00
775,82	1038,00
776,15	1048,00
776,47	1030,00
776,80	1020,00
777,12	1007,00
777,45	1016,00
777,77	1016,00
778,10	992,00
778,42	1005,00
778,75	1012,00
779,07	994,00
779,40	973,00
779,72	986,00
780,05	968,00
780,37	969,00
780,70	975,00
781,02	965,00
781,34	951,00
781,67	961,00
781,99	945,00
782,32	931,00
782,64	941,00
782,97	940,00
783,29	929,00
783,62	917,00
783,94	921,00
784,26	920,00
784,59	894,00
784,91	921,00
785,24	906,00
785,56	905,00
785,88	896,00
786,21	894,00
786,53	908,00
786,85	880,00
787,18	867,00
787,50	864,00
787,83	861,00
788,15	867,00
788,47	844,00
788,80	845,00
789,12	842,00
789,44	836,00
789,77	840,00
790,09	834,00
790,41	830,00
790,74	839,00
791,06	834,00
791,38	832,00
791,70	830,00
792,03	833,00
792,35	815,00
792,67	804,00
793,00	802,00
793,32	804,00
793,64	805,00
793,96	803,00
794,29	802,00
794,61	797,00
794,93	786,00
795,25	794,00
795,58	777,00
795,90	769,00
796,22	773,00
796,54	768,00
796,86	746,00
797,19	755,00
797,51	758,00
797,83	740,00
798,15	744,00
798,47	742,00
798,80	729,00
799,12	724,00
799,44	719,00
799,76	730,00
800,08	727,00
800,40	716,00
800,73	721,00
801,05	710,00
801,37	694,00
801,69	694,00
802,01	711,00
802,33	684,00
802,65	691,00
802,98	675,00
803,30	664,00
803,62	667,00
803,94	674,00
804,26	649,00
804,58	655,00
804,90	652,00
805,22	647,00
805,54	637,00
805,86	644,00
806,18	641,00
806,51	640,00
806,83	629,00
807,15	616,00
807,47	622,00
807,79	622,00
808,11	613,00
808,43	609,00
808,75	603,00
809,07	609,00
809,39	601,00
809,71	591,00
810,03	580,00
810,35	591,00
810,67	590,00
810,99	577,00
811,31	566,00
811,63	550,00
811,95	560,00
812,27	559,00
812,59	556,00
812,91	554,00
813,23	551,00
813,55	557,00
813,87	544,00
814,18	548,00
814,50	531,00
814,82	530,00
815,14	530,00
815,46	524,00
815,78	526,00
816,10	507,00
816,42	513,00
816,74	511,00
817,06	506,00
817,38	502,00
817,69	510,00
818,01	498,00
818,33	490,00
818,65	491,00
818,97	485,00
819,29	481,00
819,61	478,00
819,93	483,00
820,24	480,00
820,56	476,00
820,88	477,00
821,20	469,00
821,52	466,00
821,83	461,00
822,15	462,00
822,47	465,00
822,79	453,00
823,11	456,00
823,43	449,00
823,74	458,00
824,06	439,00
824,38	444,00
824,70	441,00
825,01	433,00
825,33	450,00
825,65	434,00
825,97	434,00
826,28	434,00
826,60	427,00
826,92	416,00
827,24	425,00
827,55	418,00
827,87	415,00
828,19	415,00
828,50	417,00
828,82	412,00
829,14	408,00
829,46	410,00
829,77	404,00
830,09	403,00
830,41	403,00
830,72	399,00
831,04	408,00
831,36	392,00
831,67	400,00
831,99	390,00
832,31	391,00
832,62	389,00
832,94	393,00
833,25	389,00
833,57	393,00
833,89	392,00
834,20	383,00
834,52	384,00
834,84	372,00
835,15	379,00
835,47	380,00
835,78	376,00
836,10	370,00
836,42	373,00
836,73	376,00
837,05	375,00
837,36	370,00
837,68	375,00
837,99	370,00
838,31	368,00
838,62	364,00
838,94	365,00
839,26	354,00
839,57	369,00
839,89	367,00
840,20	352,00
840,52	358,00
840,83	359,00
841,15	350,00
841,46	347,00
841,78	346,00
842,09	353,00
842,41	349,00
842,72	351,00
843,04	344,00
843,35	343,00
843,66	350,00
843,98	337,00
844,29	342,00
844,61	332,00
844,92	342,00
845,24	337,00
845,55	339,00
845,87	341,00
846,18	332,00
846,49	335,00
846,81	332,00
847,12	334,00
847,44	326,00
847,75	326,00
848,06	326,00
848,38	324,00
848,69	314,00
849,00	325,00
849,32	323,00
849,63	321,00
849,95	322,00
850,26	317,00
850,57	319,00
850,89	318,00
851,20	311,00
851,51	313,00
851,83	317,00
852,14	314,00
852,45	314,00
852,77	317,00
853,08	311,00
853,39	309,00
853,70	312,00
854,02	315,00
854,33	303,00
854,64	305,00
854,96	306,00
855,27	316,00
855,58	307,00
855,89	306,00
856,21	302,00
856,52	304,00
856,83	306,00
857,14	301,00
857,46	302,00
857,77	293,00
858,08	300,00
858,39	299,00
858,70	294,00
859,02	295,00
859,33	292,00
859,64	301,00
859,95	300,00
860,26	290,00
860,58	293,00
860,89	295,00
861,20	287,00
861,51	288,00
861,82	293,00
862,13	291,00
862,45	287,00
862,76	288,00
863,07	287,00
863,38	284,00
863,69	284,00
864,00	282,00
864,31	284,00
864,62	279,00
864,93	287,00
865,25	280,00
865,56	284,00
865,87	284,00
866,18	276,00
866,49	280,00
866,80	284,00
867,11	277,00
867,42	276,00
867,73	279,00
868,04	277,00
868,35	273,00
868,66	273,00
868,97	275,00
869,28	276,00
869,59	276,00
869,90	273,00
870,21	271,00
870,52	272,00
870,83	267,00
871,14	270,00
871,45	273,00
871,76	270,00
872,07	270,00
872,38	267,00
872,69	266,00
873,00	270,00
873,31	265,00
873,62	263,00
873,93	263,00
874,24	266,00
874,55	264,00
874,86	256,00
875,17	262,00
875,48	261,00
875,79	256,00
876,10	264,00
876,41	259,00
876,72	260,00
877,02	263,00
877,33	259,00
877,64	258,00
877,95	254,00
878,26	251,00
878,57	255,00
878,88	257,00
879,19	253,00
879,49	258,00
879,80	250,00
880,11	251,00
880,42	251,00
880,73	245,00
881,04	250,00
881,34	252,00
881,65	250,00
881,96	254,00
882,27	250,00
882,58	248,00
882,88	249,00
883,19	243,00
883,50	249,00
883,81	250,00
884,12	253,00
884,42	250,00
884,73	247,00
885,04	246,00
885,35	246,00
885,65	246,00
885,96	243,00
886,27	248,00
886,58	248,00
886,88	251,00
887,19	250,00
887,50	242,00
887,80	246,00
888,11	242,00
888,42	247,00
888,73	245,00
889,03	246,00
889,34	240,00
889,65	246,00
889,95	245,00
890,26	240,00
890,57	246,00
890,87	239,00
891,18	236,00
891,49	245,00
891,79	236,00
892,10	242,00
892,41	247,00
892,71	239,00
893,02	249,00
893,32	239,00
893,63	240,00
893,94	246,00
894,24	238,00
894,55	241,00
894,85	239,00
895,16	244,00
895,47	238,00
895,77	237,00
896,08	240,00
896,38	244,00
896,69	241,00
896,99	244,00
897,30	242,00
897,60	238,00
897,91	238,00
898,21	241,00
898,52	237,00
898,83	240,00
899,13	236,00
899,44	239,00
899,74	238,00
900,05	239,00
900,35	239,00
900,65	236,00
900,96	239,00
901,26	239,00
901,57	236,00
901,87	237,00
902,18	242,00
902,48	236,00
902,79	234,00
903,09	238,00
903,40	238,00
903,70	236,00
904,00	239,00
904,31	237,00
904,61	235,00
904,92	236,00
905,22	246,00
905,53	237,00
905,83	234,00
906,13	236,00
906,44	229,00
906,74	233,00
907,04	236,00
907,35	242,00
907,65	231,00
907,96	231,00
908,26	235,00
908,56	229,00
908,87	229,00
909,17	238,00
909,47	234,00
909,78	235,00
910,08	231,00
910,38	233,00
910,68	236,00
910,99	227,00
911,29	232,00
911,59	230,00
911,90	226,00
912,20	234,00
912,50	227,00
912,80	226,00
913,11	230,00
913,41	227,00
913,71	229,00
914,01	225,00
914,32	226,00
914,62	229,00
914,92	229,00
915,22	229,00
915,53	228,00
915,83	227,00
916,13	229,00
916,43	227,00
916,73	226,00
917,04	226,00
917,34	227,00
917,64	226,00
917,94	227,00
918,24	223,00
918,55	226,00
918,85	221,00
919,15	220,00
919,45	227,00
919,75	225,00
920,05	230,00
920,35	226,00
920,66	221,00
920,96	225,00
921,26	225,00
921,56	221,00
921,86	228,00
922,16	224,00
922,46	227,00
922,76	224,00
923,06	222,00
923,36	225,00
923,66	225,00
923,97	226,00
924,27	220,00
924,57	221,00
924,87	224,00
925,17	227,00
925,47	224,00
925,77	222,00
926,07	227,00
926,37	224,00
926,67	221,00
926,97	227,00
927,27	217,00
927,57	225,00
927,87	226,00
928,17	224,00
928,47	228,00
928,77	222,00
929,07	223,00
929,37	228,00
929,67	228,00
929,97	221,00
930,27	223,00
930,57	217,00
930,87	221,00
931,16	225,00
931,46	220,00
931,76	224,00
932,06	222,00
932,36	223,00
932,66	221,00
932,96	220,00
933,26	220,00
933,56	221,00
933,86	230,00
934,16	223,00
934,45	219,00
934,75	219,00
935,05	226,00
935,35	222,00
935,65	226,00
935,95	223,00
936,24	223,00
936,54	220,00
936,84	222,00
937,14	224,00
937,44	225,00
937,74	222,00
938,03	225,00
938,33	223,00
938,63	222,00
938,93	224,00
939,23	218,00
939,52	222,00
939,82	214,00
940,12	221,00
940,42	226,00
940,71	220,00
941,01	298,00
941,31	227,00
941,61	216,00
941,90	220,00
942,20	218,00
942,50	219,00
942,80	218,00
943,09	224,00
943,39	219,00
943,69	220,00
943,98	224,00
944,28	224,00
944,58	226,00
944,87	219,00
945,17	222,00
945,47	222,00
945,76	221,00
946,06	221,00
946,36	217,00
946,65	222,00
946,95	223,00
947,25	221,00
947,54	220,00
947,84	226,00
948,14	219,00
948,43	222,00
948,73	219,00
949,02	223,00
949,32	220,00
949,62	219,00
949,91	222,00
950,21	220,00
950,50	227,00
950,80	223,00
951,09	220,00
951,39	218,00
951,69	219,00
951,98	225,00
952,28	221,00
952,57	221,00
952,87	217,00
953,16	220,00
953,46	223,00
953,75	225,00
954,05	219,00
954,34	225,00
954,64	222,00
954,93	219,00
955,23	222,00
955,52	221,00
955,82	224,00
956,11	222,00
956,41	223,00
956,70	221,00
957,00	223,00
957,29	219,00
957,58	220,00
957,88	220,00
958,17	222,00
958,47	222,00
958,76	220,00
959,06	221,00
959,35	221,00
959,64	221,00
959,94	223,00
960,23	222,00
960,52	225,00
960,82	218,00
961,11	220,00
961,41	220,00
961,70	221,00
961,99	218,00
962,29	217,00
962,58	222,00
962,87	226,00
963,17	222,00
963,46	230,00
963,75	222,00
964,05	223,00
964,34	223,00
964,63	221,00
964,93	219,00
965,22	222,00
965,51	229,00
965,80	218,00
966,10	218,00
966,39	225,00
966,68	218,00
966,97	220,00
967,27	224,00
967,56	217,00
967,85	220,00
968,14	222,00
968,44	220,00
968,73	219,00
969,02	221,00
969,31	220,00
969,61	219,00
969,90	220,00
970,19	222,00
970,48	219,00
970,77	222,00
971,07	225,00
971,36	224,00
971,65	222,00
971,94	222,00
972,23	221,00
972,52	219,00
972,81	221,00
973,11	219,00
973,40	223,00
973,69	224,00
973,98	230,00
974,27	224,00
974,56	218,00
974,85	217,00
975,14	220,00
975,44	221,00
975,73	226,00
976,02	227,00
976,31	224,00
976,60	221,00
976,89	225,00
977,18	219,00
977,47	222,00
977,76	220,00
978,05	218,00
978,34	221,00
978,63	224,00
978,92	219,00
979,21	215,00
979,50	220,00
979,79	217,00
980,08	220,00
980,37	221,00
980,66	219,00
980,95	223,00
981,24	216,00
981,53	218,00
981,82	220,00
982,11	217,00
982,40	221,00
982,69	218,00
982,98	221,00
983,27	220,00
983,56	221,00
983,85	218,00
984,14	223,00
984,43	221,00
984,72	218,00
985,01	220,00
985,29	225,00
985,58	220,00
985,87	220,00
986,16	221,00
986,45	217,00
986,74	215,00
987,03	218,00
987,32	217,00
987,60	219,00
987,89	217,00
988,18	221,00
988,47	220,00
988,76	218,00
989,05	219,00
989,33	219,00
989,62	222,00
989,91	217,00
990,20	218,00
990,49	220,00
990,77	221,00
991,06	221,00
991,35	216,00
991,64	220,00
991,93	221,00
992,21	220,00
992,50	214,00
992,79	219,00
993,08	220,00
993,36	221,00
993,65	220,00
993,94	217,00
994,23	218,00
994,51	225,00
994,80	218,00
995,09	216,00
995,37	216,00
995,66	225,00
995,95	218,00
996,23	220,00
996,52	221,00
996,81	216,00
997,09	217,00
997,38	217,00
997,67	215,00
997,95	218,00
998,24	220,00
998,53	217,00
998,81	221,00
999,10	220,00
999,39	215,00
999,67	225,00
999,96	217,00
1000,24	219,00
1000,53	215,00
1000,82	217,00
1001,10	222,00
1001,39	218,00
1001,67	218,00
1001,96	216,00
1002,25	218,00
1002,53	218,00
1002,82	216,00
1003,10	221,00
1003,39	215,00
1003,67	218,00
1003,96	217,00
1004,24	221,00
1004,53	218,00
1004,81	222,00
1005,10	223,00
1005,38	215,00
1005,67	217,00
1005,95	217,00
1006,24	216,00
1006,52	218,00
1006,81	227,00
1007,09	218,00
1007,38	218,00
1007,66	219,00
1007,95	218,00
1008,23	218,00
1008,51	215,00
1008,80	215,00
1009,08	219,00
1009,37	223,00
1009,65	219,00
1009,94	219,00
1010,22	218,00
1010,50	217,00
1010,79	219,00
1011,07	212,00
1011,36	217,00
1011,64	216,00
1011,92	217,00
1012,21	223,00
1012,49	220,00
1012,77	215,00
1013,06	214,00
1013,34	215,00
1013,62	216,00
1013,91	221,00
1014,19	216,00
1014,47	216,00
1014,76	218,00
1015,04	220,00
1015,32	221,00
1015,60	219,00
1015,89	219,00
1016,17	220,00
1016,45	218,00
1016,74	216,00
1017,02	226,00
1017,30	217,00
1017,58	220,00
1017,87	218,00
1018,15	219,00
1018,43	225,00
1018,71	220,00
1019,00	222,00
1019,28	221,00
1019,56	222,00
1019,84	218,00
1020,12	218,00
1020,41	216,00
1020,69	218,00
1020,97	218,00
1021,25	218,00
1021,53	217,00
1021,81	220,00
1022,10	219,00
1022,38	223,00
1022,66	218,00
1022,94	221,00
>>>>>End Processed Spectral Data<<<<<
